# EMSIM OUTPUT FILE 
# PARAMETERS OF SIMULATION RUN 
# ---------------------------- 
# Mode               : 1 
# Magnetic field?      true
# Failing field?       false
# Point charge?        false
# Electric field?      true
# Magnetic strength  : 1.0E-7T 
# Electric strength  : 1.0E-7NC^-1 
# Phase              : 1.5707963267948966
# Algorithm          : 3
# Time-step          : 1.0E-5s 
# Number of Turns    : 50.0
# Number of particles: 50
# Spread in x        : 1.0439684858214946m 
# Spread in y        : 1.0439684858214946m 
# Spread in z        : 1.0439684858214946m 
# Intial average v   : 1000.0ms^-1 
# Intial v_sigma     : 1.0E-5ms^-1 
# ----------------------------- 
x 	 y 	 z 
0.4989373667166402	10.085258466058493	0.08605031941162189
1.930344574981377	19.978984077704826	0.08605031941162189
4.301455686475021	29.690496942196035	0.08605031941162189
7.590539949887341	39.130756031999766	0.08605031941162189
11.767450039120774	48.21320647466904	0.08605031941162189
16.79389837980597	56.85457314820832	0.08605031941162189
22.62380811167418	64.97562421354849	0.08605031941162189
29.203735469696255	72.5018975834589	0.08605031941162189
36.47335971207032	79.36438366697467	0.08605031941162189
44.36603610380614	85.50015812924104	0.08605031941162189
52.809406886491395	90.85295886490076	0.08605031941162189
61.72606463313679	95.37370189456985	0.08605031941162189
71.03426190665616	99.02093145387998	0.08605031941162189
80.64866071595006	101.76120014787091	0.08605031941162189
90.48111489861985	103.5693756846733	0.08605031941162189
100.44147825739171	104.42887137553886	0.08605031941162189
110.43843104114055	104.33179828719565	0.08605031941162189
120.380317193148	103.27903765081086	0.08605031941162189
130.17598469043796	101.2802328629515	0.08605031941162189
139.73562126962204	98.35370115114563	0.08605031941162189
148.9715778769179	94.526265713194	0.08605031941162189
157.79917229248048	89.83300986852251	0.08605031941162189
166.1374655608885	84.31695547490668	0.08605031941162189
173.91000410888515	78.02866855828808	0.08605031941162189
181.0455207460031	71.0257957707711	0.08605031941162189
187.47858812061673	63.372535926119895	0.08605031941162189
193.15021863981931	55.13905145735044	0.08605031941162189
198.00840535230836	46.40082519187869	0.08605031941162189
202.0085988346873	37.237968341087026	0.08605031941162189
205.1141157082985	27.734486048512366	0.08605031941162189
207.29647504049944	17.977507230039336	0.08605031941162189
208.53565954544823	8.056485766928876	0.08605031941162189
208.8202934721561	-1.9378666380577816	0.08605031941162189
208.1477029057121	-11.914369749231762	0.08605031941162189
206.52401179454296	-21.78090921278212	0.08605031941162189
203.96409751627266	-31.44696994634798	0.08605031941162189
200.49142188334554	-40.823927479618376	0.08605031941162189
196.1378155148622	-49.825807152453855	0.08605031941162189
190.94318607646656	-58.37007239211622	0.08605031941162189
184.9551524636948	-66.37838147585714	0.08605031941162189
178.2286082820737	-73.77730584024872	0.08605031941162189
170.8252186255206	-80.49900335113293	0.08605031941162189
162.8128547661893	-86.48184036094524	0.08605031941162189
154.264971938199	-91.67095684965314	0.08605031941162189
145.25993591947184	-96.01876946732764	0.08605031941162189
135.88030458540058	-99.48540786566988	0.08605031941162189
126.212071020958	-102.03908031740008	0.08605031941162189
116.34387513037329	-103.65636527070674	0.08605031941162189
106.36619097238885	-104.32242616497649	0.08605031941162189
96.37049727173786	-104.03114753757804	0.08605031941162189
86.4484387117982	-102.78519117309192	0.08605031941162189
76.6909856979699	-100.59597177945216	0.08605031941162189
67.18760029541552	-97.48355241327226	0.08605031941162189
58.02541598826438	-93.47646061240648	0.08605031941162189
49.288438780729706	-88.61142692079343	0.08605031941162189
41.05677696498625	-82.93304820218913	0.08605031941162189
33.4059066178922	-76.49337882898372	0.08605031941162189
26.405979561127953	-69.35145349359847	0.08605031941162189
20.121180130062285	-61.57274601690749	0.08605031941162189
14.60913664921545	-53.228569114975244	0.08605031941162189
9.920393010668853	-44.395420626767454	0.08605031941162189
6.097945200770881	-35.154282196410676	0.08605031941162189
3.1768470250586662	-25.589876839549532	0.08605031941162189
1.1838886469152659	-15.78989220037773	0.08605031941162189
0.1373508879517307	-5.844176587074924	0.08605031941162189
-0.03194256640998308	0.10541609571371394	0.08605031941162189
0.04685027049215621	4.1565068536052046	0.08605031941162189
0.9132874384677586	14.120615161936442	0.08605031941162189
2.7287480810130664	23.956230634452286	0.08605031941162189
5.476596014061528	33.57316770779165	0.08605031941162189
9.131646332838526	42.8832521316442	0.08605031941162189
13.66039627713757	51.80112220463877	0.08605031941162189
19.021332322814676	60.24501143319518	0.08605031941162189
25.16531072225338	68.13749823513493	0.08605031941162189
32.0360080055146	75.40621581414176	0.08605031941162189
39.57043731242352	81.98451569626972	0.08605031941162189
47.69952582224147	87.81207884448328	0.08605031941162189
56.34874798735792	92.83546874778655	0.08605031941162189
65.43880876575436	97.00862141344761	0.08605031941162189
74.88637058852666	100.2932677692789	0.08605031941162189
84.60481739771583	102.65928460258547	0.08605031941162189
94.50504874975572	104.08497081756654	0.08605031941162189
104.4962967041306	104.5572464776364	0.08605031941162189
114.48695800786207	104.0717728070501	0.08605031941162189
124.38543394613835	102.63299205088305	0.08605031941162189
134.1009701590409	100.25408682717371	0.08605031941162189
143.5444887245667	96.95685934316957	0.08605031941162189
152.62940487897453	92.77153158233787	0.08605031941162189
161.27242088627276	87.73646829338854	0.08605031941162189
169.39428977809573	81.8978253203566	0.08605031941162189
176.92054196139568	75.3091264973228	0.08605031941162189
183.78216803175758	68.03077298632819	0.08605031941162189
189.91625153160305	60.12948955646517	0.08605031941162189
195.2665458514263	51.67771288032069	0.08605031941162189
199.78398998426707	42.75292745560102	0.08605031941162189
203.42715840420038	33.43695524001747	0.08605031941162189
206.16264094355662	23.815205511941926	0.08605031941162189
207.96534918535247	13.97589183407037	0.08605031941162189
208.81874651306748	4.009214499805664	0.08605031941162189
208.71497837734785	-5.994020766844842	0.08605031941162189
207.6549254872877	-15.941928520791382	0.08605031941162189
205.6482859208898	-25.74289260010615	0.08605031941162189
202.71344873334473	-35.307052168265244	0.08605031941162189
198.87731326633278	-44.546716695666746	0.08605031941162189
194.1750426012937	-53.377169959169635	0.08605031941162189
188.649741244892	-61.71744678440593	0.08605031941162189
182.35206000109832	-69.49107540397979	0.08605031941162189
175.33973165192504	-76.62677862497732	0.08605031941162189
167.67704170325825	-83.05912737680124	0.08605031941162189
159.43423904762523	-88.72914064688418	0.08605031941162189
150.6868919466413	-93.58482630331844	0.08605031941162189
141.5151952372695	-97.58165784536334	0.08605031941162189
132.00323511327665	-100.68298271018706	0.08605031941162189
122.23821822229884	-102.86035839168291	0.08605031941162189
112.30967214616177	-104.09381328901321	0.08605031941162189
102.30862459453483	-104.37202989261948	0.08605031941162189
92.32676883723241	-103.69244862745634	0.08605031941162189
82.45562302671394	-102.06129140064186	0.08605031941162189
72.78569111842202	-99.49350463689241	0.08605031941162189
63.405633082019534	-96.0126223232802	0.08605031941162189
54.401452011472664	-91.65055031824193	0.08605031941162189
45.85570558706255	-86.44727390166753	0.08605031941162189
37.846749119206635	-80.45049124667005	0.08605031941162189
30.448017114481168	-73.71517617284768	0.08605031941162189
23.727349951112537	-66.3030741892554	0.08605031941162189
17.7463718376818	-58.282136446971656	0.08605031941162189
12.55992575865704	-49.7258967904578	0.08605031941162189
8.21557058794053	-40.71279761865068	0.08605031941162189
4.753144981681741	-31.3254707361168	0.08605031941162189
2.204402049388643	-21.649979787322923	0.08605031941162189
0.5927181534801136	-11.77503121936116	0.08605031941162189
-0.0671208218816992	-1.791103009905633	0.08605031941162189
-0.0842364946987055	0.10066917624884765	0.08605031941162189
0.2309782442166231	8.210914463732392	0.08605031941162189
1.4843459085101751	18.138851638779226	0.08605031941162189
3.6815049055480986	27.901447511672647	0.08605031941162189
6.802319389841901	37.409192858540095	0.08605031941162189
10.818184857638535	46.574914214211105	0.08605031941162189
15.692290327694684	55.314573137729326	0.08605031941162189
21.37995576499619	63.548036741938525	0.08605031941162189
27.829041654466323	71.19981242232977	0.08605031941162189
34.98042697017569	78.19974004850963	0.08605031941162189
42.76855115845267	84.483635271587	0.08605031941162189
51.12201516634581	89.99387804891039	0.08605031941162189
59.96423600549094	94.67994098980229	0.08605031941162189
69.21414885054867	98.49885267763699	0.08605031941162189
78.78695023550684	101.41559171972699	0.08605031941162189
88.59487553427823	103.40340791156245	0.08605031941162189
98.54800359763055	104.44406757016286	0.08605031941162189
108.55508116943693	104.52802078652172	0.08605031941162189
118.5243595238241	103.65448906298535	0.08605031941162189
128.36443565267774	101.83147253133845	0.08605031941162189
137.98509029117724	99.07567668467888	0.08605031941162189
147.29811509794646	95.41235929409832	0.08605031941162189
156.21812140577947	90.87509891296908	0.08605031941162189
164.66332312779147	85.50548709057288	0.08605031941162189
172.5562866407373	79.35274711628709	0.08605031941162189
179.82464076993926	72.47328278917612	0.08605031941162189
186.4017403660074	64.9301613494193	0.08605031941162189
192.22727738897072	56.792535311680794	0.08605031941162189
197.24783389664933	48.13500850074297	0.08605031941162189
201.4173718667024	39.0369521013506	0.08605031941162189
204.6976553608683	29.581776992558986	0.08605031941162189
207.05860116019252	19.856169037738628	0.08605031941162189
208.47855465581222	9.94929434108856	0.08605031941162189
208.94448615271185	-0.04815261531457622	0.08605031941162189
208.45206924674795	-10.045111458059237	0.08605031941162189
207.00576454132545	-19.9493212097862	0.08605031941162189
204.61882142983404	-29.66984536917678	0.08605031941162189
201.31311580964183	-39.1175602757305	0.08605031941162189
197.11894739140058	-48.20584268457138	0.08605031941162189
192.0747619754695	-56.85136398881282	0.08605031941162189
186.22679903891188	-64.97485424254191	0.08605031941162189
179.62866786345495	-72.50182897925269	0.08605031941162189
172.34085609000027	-79.36327216160022	0.08605031941162189
164.4301752048489	-85.49626900049498	0.08605031941162189
155.96914804108528	-90.84458284111678	0.08605031941162189
147.03534391024095	-95.35917082619517	0.08605031941162189
137.7106674595572	-98.99863360817011	0.08605031941162189
128.0806077744884	-101.72959498647118	0.08605031941162189
118.23345461063244	-103.52700798859482	0.08605031941162189
108.25948894071433	-104.37438458801915	0.08605031941162189
98.25015523780073	-104.26394695210399	0.08605031941162189
88.2972230834454	-103.19669883254873	0.08605031941162189
78.49194578740618	-101.18241644313659	0.08605031941162189
68.92422373304586	-98.23955890766479	0.08605031941162189
59.68178011927105	-94.39509909837267	0.08605031941162189
50.84935665627806	-89.68427641508582	0.08605031941162189
42.50793658949896	-84.15027377098633	0.08605031941162189
34.73400217565087	-77.84382174584933	0.08605031941162189
27.598833418985993	-70.82273353537099	0.08605031941162189
21.16785449761091	-63.15137495973992	0.08605031941162189
15.500033872558998	-54.90007439004644	0.08605031941162189
10.64734358016845	-46.14447800202842	0.08605031941162189
6.654282665750616	-36.96485626796624	0.08605031941162189
3.5574691285035915	-27.445368044660285	0.08605031941162189
1.3853041195255218	-17.673289004263367	0.08605031941162189
0.1577114723685696	-7.73821148172072	0.08605031941162189
-0.13653629622246297	0.10593255033225019	0.08605031941162189
-0.1140385347530907	2.269046475932376	0.08605031941162189
0.5726112149511626	12.257149988247987	0.08605031941162189
2.211405811304008	22.133882114346186	0.08605031941162189
4.787329256651744	31.808644298957585	0.08605031941162189
8.276772967883229	41.19273227941727	0.08605031941162189
12.647752595857604	50.20010600614334	0.08605031941162189
17.86020119491706	58.74817851951762	0.08605031941162189
23.8663364998348	66.75857317458058	0.08605031941162189
30.61109894352387	74.15784227068596	0.08605031941162189
38.0326564002201	80.87814049705308	0.08605031941162189
46.06297102704703	86.85784701936176	0.08605031941162189
54.62842300748401	92.04213050335986	0.08605031941162189
63.65048547850905	96.38345189457745	0.08605031941162189
73.04644445386178	99.84200034387577	0.08605031941162189
82.73015714327128	102.38605828146265	0.08605031941162189
92.61284171540171	103.99229229156722	0.08605031941162189
102.60389126391611	104.64596712022932	0.08605031941162189
112.61170451408593	104.34108085338069	0.08605031941162189
122.5445256538237	103.0804200251249	0.08605031941162189
132.3112855892861	100.87553415022393	0.08605031941162189
141.82243691206622	97.74662991354916	0.08605031941162189
150.99077492257578	93.7223859858774	0.08605031941162189
159.7322371819911	88.83969016315145	0.08605031941162189
167.966674261929	83.1433012385147	0.08605031941162189
175.61858462501934	76.68543870653204	0.08605031941162189
182.61780689834276	69.5253040607045	0.08605031941162189
188.900163192281	61.728538072601914	0.08605031941162189
194.40804756610314	53.36661902792555	0.08605031941162189
199.09095424447708	44.51620743619216	0.08605031941162189
202.905940741438	35.25844322153271	0.08605031941162189
205.81802164509307	25.678201837830148	0.08605031941162189
207.8004894520375	15.863316128076622	0.08605031941162189
208.83515950922254	5.903771011608431	0.08605031941162189
208.91252432368725	-4.1095382848012765	0.08605031941162189
208.03180380973987	-14.084961835819547	0.08605031941162189
206.20104297388062	-23.93047510988479	0.08605031941162189
203.43701826767497	-33.55580130999641	0.08605031941162189
199.76506290351657	-42.87268925685401	0.08605031941162189
195.21883462770674	-51.795714856892545	0.08605031941162189
189.84000720804164	-60.24306433330611	0.08605031941162189
183.67788842421282	-68.13728436331041	0.08605031941162189
176.78896806277476	-75.40599224375757	0.08605031941162189
169.23640006021586	-81.98253957362995	0.08605031941162189
161.08942354146603	-87.80662336805874	0.08605031941162189
152.42272806144848	-92.82483900042611	0.08605031941162189
143.31576886890488	-96.99116990240528	0.08605031941162189
133.85203846999318	-100.26740953157582	0.08605031941162189
124.11830116987711	-102.62351173721083	0.08605031941162189
114.20379761002226	-104.0378663112739	0.08605031941162189
104.19942659406954	-104.49749719756892	0.08605031941162189
94.19691170345284	-103.99818154106443	0.08605031941162189
84.28796034345008	-102.54448848517201	0.08605031941162189
74.56342292982778	-100.14973736053156	0.08605031941162189
65.11245992502236	-96.83587564790638	0.08605031941162189
56.02172436090167	-92.63327783334216	0.08605031941162189
47.37456734323632	-87.58046699904628	0.08605031941162189
39.250273822368655	-81.72376170185433	0.08605031941162189
31.723335637143723	-75.11685137616884	0.08605031941162189
24.862768497492254	-67.82030415360519	0.08605031941162189
18.731479168267715	-59.90101161124565	0.08605031941162189
13.385688656731222	-51.43157553871338	0.08605031941162189
8.87441669266485	-42.48964234591722	0.08605031941162189
5.239032228185384	-33.15719121342677	0.08605031941162189
2.512874079076592	-23.5197825115975	0.08605031941162189
0.7209451864081875	-13.665773378901436	0.08605031941162189
-0.12031661792330596	-3.685494640187739	0.08605031941162189
-0.18884177813205028	0.10118109274250069	0.08605031941162189
-0.0031662437960799663	6.3301425482465525	0.08605031941162189
1.071392232724222	16.2890865173161	0.08605031941162189
3.0935264844968664	26.099648916433825	0.08605031941162189
6.044705403418829	35.67188089945528	0.08605031941162189
9.897879827511602	44.91801791138229	0.08605031941162189
14.617730461195263	53.75328437185265	0.08605031941162189
20.16099162200374	62.096670961799504	0.08605031941162189
26.47684784618677	69.87167738652764	0.08605031941162189
33.50739971761536	77.00701380491728	0.08605031941162189
41.18819464970451	83.43725449336873	0.08605031941162189
49.44881775451092	89.10343775097584	0.08605031941162189
58.21353738221311	93.95360654524418	0.08605031941162189
67.40199941288965	97.9432849409369	0.08605031941162189
76.92996393547642	101.03588594335223	0.08605031941162189
86.710077560098	103.2030470161198	0.08605031941162189
96.65267428320871	104.42489019668022	0.08605031941162189
106.66659756312445	104.69020442390399	0.08605031941162189
116.66003606899754	103.99654840547731	0.08605031941162189
126.54136544085003	102.35027308119447	0.08605031941162189
136.21998834310048	99.7664634754635	0.08605031941162189
145.60716510959475	96.26880047140922	0.08605031941162189
154.61682736434017	91.88934377315191	0.08605031941162189
163.16636715815994	86.66823804543559	0.08605031941162189
171.1773943858965	80.65334492413957	0.08605031941162189
178.57645553954458	73.89980427088025	0.08605031941162189
185.29570720711789	66.46952869366153	0.08605031941162189
191.273538141906	58.43063596741567	0.08605031941162189
196.45513419824857	49.85682455767837	0.08605031941162189
200.79298095372724	40.826697972346054	0.08605031941162189
204.24729940894562	31.423044135680943	0.08605031941162189
206.78641076959815	21.732076391162952	0.08605031941162189
208.38702696569857	11.842643091650402	0.08605031941162189
209.03446360414895	1.8453569371636482	0.08605031941162189
208.72274163382872	-8.168768701261754	0.08605031941162189
207.45465521218634	-18.107458673604388	0.08605031941162189
205.24181644138892	-27.879350363358277	0.08605031941162189
202.1045049170634	-37.394849305207735	0.08605031941162189
198.07147638747114	-46.5667109315152	0.08605031941162189
193.17969918612798	-55.310840489860894	0.08605031941162189
187.47401536546602	-63.547064089052846	0.08605031941162189
181.00672963772305	-71.19986380405709	0.08605031941162189
173.8371298911625	-78.19907009975893	0.08605031941162189
166.03094367711228	-84.4805052247232	0.08605031941162189
157.65973565039656	-89.98657167558913	0.08605031941162189
148.8002514871461	-94.66678033630178	0.08605031941162189
139.5337142947423	-98.47821344941538	0.08605031941162189
129.94507996427652	-101.38591817415042	0.08605031941162189
120.122258292398	-103.36322712225657	0.08605031941162189
110.15530701333253	-104.39200293219929	0.08605031941162189
100.13560613028173	-104.46280463861206	0.08605031941162189
90.15502011611258	-103.57497431094843	0.08605031941162189
80.30505566453284	-101.73664316626297	0.08605031941162189
70.67602271381143	-98.96465709933575	0.08605031941162189
61.35620643517414	-95.284422312175	0.08605031941162189
52.43105777754219	-90.72967245749929	0.08605031941162189
43.98240999022173	-85.34215943040861	0.08605031941162189
36.087728307041075	-79.1712706424996	0.08605031941162189
28.81939967146111	-72.27357628674756	0.08605031941162189
22.244069015133856	-64.71231074338404	0.08605031941162189
16.42202817562198	-56.55679288086116	0.08605031941162189
11.406663056429375	-47.88179056627386	0.08605031941162189
7.243964098553288	-38.76683521117228	0.08605031941162189
3.9721045523477687	-29.29549263684617	0.08605031941162189
1.621090416906729	-19.554596943703284	0.08605031941162189
0.2124852571315752	-9.633454408620125	0.08605031941162189
-0.2411510911763417	0.10644999308503703	0.08605031941162189
-0.2407848280757209	0.3771263599720387	0.08605031941162189
0.2654923010760557	10.385945916331039	0.08605031941162189
1.7267269947004666	20.300620427022597	0.08605031941162189
4.129532594781235	30.030133481434845	0.08605031941162189
