# EMSIM OUTPUT FILE 
# PARAMETERS OF SIMULATION RUN 
# ---------------------------- 
# Mode               : 1 
# Magnetic field?      true
# Failing field?       false
# Point charge?        false
# Electric field?      true
# Magnetic strength  : 1.0E-7T 
# Electric strength  : 1.0E-7NC^-1 
# Phase              : 1.5707963267948966
# Algorithm          : 3
# Time-step          : 1.0E-5s 
# Number of Turns    : 50.0
# Number of particles: 50
# Spread in x        : 1.0439684858214946m 
# Spread in y        : 1.0439684858214946m 
# Spread in z        : 1.0439684858214946m 
# Intial average v   : 1000.0ms^-1 
# Intial v_sigma     : 1.0ms^-1 
# ----------------------------- 
x 	 y 	 z 
0.49610627572339894	9.951884739924141	-0.01666449918692676
1.9274900721215236	19.845452871099404	-0.01666449918692676
4.2985628171630985	29.55681121548771	-0.01666449918692676
7.587594111160927	38.99692016229108	-0.01666449918692676
11.764437113529992	48.07922621567878	-0.01666449918692676
16.790804864852827	56.72045557753148	-0.01666449918692676
22.620621243614966	64.84137766777802	-0.01666449918692676
29.200443340571862	72.3675315817638	-0.01666449918692676
36.46995137889142	79.22990882383485	-0.01666449918692676
44.3625016888921	85.36558605713935	-0.01666449918692676
52.8057376680428	90.71830206786377	-0.01666449918692676
61.72225312521148	95.2389736535339	-0.01666449918692676
71.03030192781486	98.88614570493266	-0.01666449918692676
80.6445474459424	101.6263713544852	-0.01666449918692676
90.47684492259094	103.43451870510488	-0.01666449918692676
100.43704959720407	104.29400132660285	-0.01666449918692676
110.4338431735236	104.19693040567174	-0.01666449918692676
120.37557105450922	103.14418715374636	-0.01666449918692676
130.1710826682904	101.14541480814543	-0.01666449918692676
139.7305671807082	98.21893029909023	-0.01666449918692676
148.96637693222942	94.3915563917419	-0.01666449918692676
157.79383104949414	89.69837584151844	-0.01666449918692676
166.13199186345682	84.1824098159897	-0.01666449918692676
173.90440701533225	77.8942235310202	-0.01666449918692676
181.0398104460854	70.89146271619238	-0.01666449918692676
187.47277584210875	63.23832515876031	-0.01666449918692676
193.14431654558297	55.00497217065241	-0.01666449918692676
198.00242642878646	46.2668853738974	-0.01666449918692676
202.00255677284596	37.1041747012413	-0.01666449918692676
205.10802477810896	27.60084395605819	-0.01666449918692676
207.2903499601099	17.844020664829806	-0.01666449918692676
208.52951534624597	7.9231572829124834	-0.01666449918692676
208.81414504922458	-2.0710450223478216	-0.01666449918692676
208.1415646102319	-12.047393453425974	-0.01666449918692676
206.51789870890792	-21.91377571205494	-0.01666449918692676
203.95802456047994	-31.57968237176853	-0.01666449918692676
200.48540360960143	-40.956490374900376	-0.01666449918692676
196.1318659741578	-49.9582264323097	-0.01666449918692676
190.9373186897476	-58.50235528804107	-0.01666449918692676
184.94937989880694	-66.51053646983937	-0.01666449918692676
178.22294233761107	-73.90934258701498	-0.01666449918692676
170.8196701226434	-80.63093258964014	-0.01666449918692676
162.80743344940188	-86.61367381593129	-0.01666449918692676
154.25968638599767	-91.80270712414789	-0.01666449918692676
145.25479346568324	-96.15044992711177	-0.01666449918692676
135.87531125193053	-99.61703251673791	-0.01666449918692676
126.20723146256793	-102.17066367755373	-0.01666449918692676
116.33919259199057	-103.78792223645392	-0.01666449918692676
106.36166725934326	-104.45397187495699	-0.01666449918692676
96.36613273319647	-104.16269723376828	-0.01666449918692676
86.44423223755035	-102.91676006106108	-0.01666449918692676
76.68693472859286	-100.72757488895026	-0.01666449918692676
67.1837008457271	-97.61520446042951	-0.01666449918692676
58.02166268384757	-93.60817586480641	-0.01666449918692676
49.284824907195265	-88.74321906665737	-0.01666449918692676
41.05329452952048	-83.0649302248715	-0.01666449918692676
33.402546422526974	-76.62536288792855	-0.01666449918692676
26.402731287060526	-69.48355081284859	-0.01666449918692676
20.118032432252367	-61.704966782189224	-0.01666449918692676
14.606077260391922	-53.36092238030171	-0.01666449918692676
9.917408853793031	-44.5279142314171	-0.01666449918692676
6.095022508925015	-35.28692269304209	-0.01666449918692676
3.1739714676606656	-25.72266943411219	-0.01666449918692676
1.1810454611025216	-15.92284070436916	-0.01666449918692676
0.1345250139184791	-5.977283395682822	-0.01666449918692676
-0.034765532495056324	-0.02779222119561318	-0.01666449918692676
0.04402595068117007	4.023228893361915	-0.01666449918692676
0.910448719480175	13.98717738455661	-0.01666449918692676
2.7258798627502467	23.82263647613638	-0.01666449918692676
5.473683474978205	33.439420706086445	-0.01666449918692676
9.128675057605916	42.749357225463335	-0.01666449918692676
13.657352388813063	51.66708568899351	-0.01666449918692676
19.018202610076624	60.11084090149139	-0.01666449918692676
25.162082760534304	68.00320250956544	-0.01666449918692676
32.03267027092222	75.27180486481193	-0.01666449918692676
39.56697928740505	81.8500005497977	-0.01666449918692676
47.69593809202235	87.67747148291298	-0.01666449918692676
56.3450223262707	92.70078199873966	-0.01666449918692676
65.43493821266597	96.87386883252246	-0.01666449918692676
74.88234951067282	100.1584635157732	-0.01666449918692676
84.6006415423568	102.5244433096835	-0.01666449918692676
94.50071528317994	103.9501074581801	-0.01666449918692676
104.49180423764835	104.42237622712973	-0.01666449918692676
114.48230661055112	103.93691090410746	-0.01666449918692676
124.38062514422334	102.49815365779452	-0.01666449918692676
134.09600692191455	100.11928689081982	-0.01666449918692676
143.53937543757723	96.82211245798008	-0.01666449918692676
152.62414730323312	92.63685185648048	-0.01666449918692676
161.2670261058452	87.60186921941433	-0.01666449918692676
169.38876613506437	81.76331965148923	-0.01666449918692676
176.91489897938797	75.17472613052443	-0.01666449918692676
183.77641632863939	67.8964888532152	-0.01666449918692676
189.91040272214022	59.9953315230735	-0.01666449918692676
195.26061244080407	51.54368965663985	-0.01666449918692676
199.7779852534455	42.61904651570664	-0.01666449918692676
203.4210962881561	33.3032227535345	-0.01666449918692676
206.15653590352653	23.6816262874667	-0.01666449918692676
207.95921607625166	13.84246927507084	-0.01666449918692676
208.812600437258	3.875949064145369	-0.01666449918692676
208.70883382933707	-6.12713878043183	-0.01666449918692676
207.64879716301854	-16.074888187450885	-0.01666449918692676
205.64218889100275	-25.875696193905693	-0.01666449918692676
202.70739778169883	-35.439703397029	-0.01666449918692676
198.87132275445776	-44.67922066420149	-0.01666449918692676
194.16912633671302	-53.509533122474586	-0.01666449918692676
188.6439123545241	-61.8496768885028	-0.01666449918692676
182.34633081089783	-69.62318141490591	-0.01666449918692676
175.33411357386527	-76.75877064659218	-0.01666449918692676
167.67154513069312	-83.19101655816027	-0.01666449918692676
159.42887325998885	-88.86093908002931	-0.01666449918692676
150.68166502436023	-93.7165469124214	-0.01666449918692676
141.51011398766659	-97.71331426823892	-0.01666449918692676
131.99830500814693	-100.81458917326239	-0.01666449918692676
122.23344334772978	-102.99192957956855	-0.01666449918692676
112.30505516505725	-104.22536420987295	-0.01666449918692676
102.30416672218745	-104.50357574057162	-0.01666449918692676
92.32246983016792	-103.82400464326898	-0.01666449918692676
82.45148118491025	-102.19287273199967	-0.01666449918692676
72.78170330088221	-99.62512619951549	-0.01666449918692676
63.40179473555667	-96.14429866416748	-0.01666449918692676
54.39775721244251	-91.78229548229511	-0.01666449918692676
45.852147095661486	-86.57910130291664	-0.01666449918692676
37.84331844583725	-80.5824135452819	-0.01666449918692676
30.444704597577047	-73.84720515904499	-0.01666449918692676
23.724144845709006	-66.43522067521127	-0.01666449918692676
17.743262413920437	-58.41441016766974	-0.01666449918692676
12.55689940932107	-49.85830631442779	-0.01666449918692676
8.21261394403518	-40.84535026939761	-0.01666449918692676
4.7502440350000015	-31.45817252496474	-0.01666449918692676
2.201542280938711	-21.78283535828835	-0.01666449918692676
0.5898846665971024	-11.908043806562116	-0.01666449918692676
-0.06994323889626265	-1.92427879719433	-0.01666449918692676
-0.08705861819579223	-0.03253910751885231	-0.01666449918692676
0.22815076103365298	8.077570718032346	-0.01666449918692676
1.4814978716784675	18.005350083560256	-0.01666449918692676
3.6786213159217063	27.767790835443158	-0.01666449918692676
6.799385574100674	37.27538517204975	-0.01666449918692676
10.815186602822466	46.44096101277474	-0.01666449918692676
15.689214011518695	55.18048125085625	-0.01666449918692676
21.376788480750555	63.41381427072882	-0.01666449918692676
27.825771329357572	71.0654686652117	-0.01666449918692676
34.977042476022795	78.06528541599842	-0.01666449918692676
42.76504241372378	84.34908119084702	-0.01666449918692676
51.118373228599694	89.85923685899532	-0.01666449918692676
59.96045315337544	94.5452258285336	-0.01666449918692676
69.2102186546049	98.3640773611582	-0.01666449918692676
78.78286761712887	101.28077061583745	-0.01666449918692676
88.59063681228847	103.26855580799199	-0.01666449918692676
98.54360652204305	104.30919953899561	-0.01666449918692676
108.55052494209959	104.39315204601104	-0.01666449918692676
118.5196448057495	103.519634838028	-0.01666449918692676
128.3595645579965	101.69664791388584	-0.01666449918692676
137.98006636776745	98.94089649536673	-0.01666449918692676
147.29294329491907	95.27763794636155	-0.01666449918692676
156.212808028115	90.74045028089024	-0.01666449918692676
164.65787577854604	85.3709243816728	-0.01666449918692676
172.55071415134609	79.21828275042701	-0.01666449918692676
179.8189531192576	72.33892828467967	-0.01666449918692676
186.39594858883095	64.79592721745921	-0.01666449918692676
192.22139347487285	56.658430959898716	-0.01666449918692676
197.24187068006495	48.001042146985974	-0.01666449918692676
201.4113429092635	38.90313069831554	-0.01666449918692676
204.69157482707197	29.448106164035522	-0.01666449918692676
207.0524836875404	19.722653027035637	-0.01666449918692676
208.47241522061125	9.815935972117096	-0.01666449918692676
208.93833976265114	-0.18135869058522605	-0.01666449918692676
208.4459301978659	-10.178165237585771	-0.01666449918692676
206.99964783386014	-20.082217478598356	-0.01666449918692676
204.61274202616576	-29.802586985400882	-0.01666449918692676
201.30708833027063	-39.25015151544097	-0.01666449918692676
197.11298598089655	-48.3382892025989	-0.01666449918692676
192.0688801727842	-56.98367276691104	-0.01666449918692676
186.22100965324233	-65.1070335253878	-0.01666449918692676
179.62298285679637	-72.63388819886742	-0.01666449918692676
172.33528646746564	-79.49522185088327	-0.01666449918692676
164.42473091376064	-85.62812069666394	-0.01666449918692676
155.96383787976416	-90.9763489799384	-0.01666449918692676
147.0301754473285	-95.49086462797726	-0.01666449918692676
137.7056469646122	-99.13026895655892	-0.01666449918692676
128.07574016049256	-101.86118630116638	-0.01666449918692676
118.22874338893402	-103.65857009314841	-0.01666449918692676
108.25493618882142	-104.50593257393034	-0.01666449918692676
98.2457615803206	-104.39549604045642	-0.01666449918692676
88.29298768634459	-103.32826423445779	-0.01666449918692676
78.48786636564404	-101.31401322028763	-0.01666449918692676
68.92029657151117	-98.37120183421956	-0.01666449918692676
59.67800010683073	-94.52680252551083	-0.01666449918692676
50.8457173326257	-89.81605413942303	-0.01666449918692676
42.50443020437304	-84.28213890807599	-0.01666449918692676
34.73061975988076	-77.97578660992717	-0.01666449918692676
27.595564866714064	-70.95480952644563	-0.01666449918692676
21.16468865893694	-63.28357245906408	-0.01666449918692676
15.496958655757695	-55.032402664927766	-0.01666449918692676
10.644346062543013	-46.27694512085281	-0.01666449918692676
6.651349212105982	-37.097469026212096	-0.01666449918692676
3.554585516153263	-27.578131902583078	-0.01666449918692676
1.3824556686859373	-17.806208036821452	-0.01666449918692676
0.15488318074550814	-7.87128834120155	-0.01666449918692676
-0.13935957687203643	-0.027275837197312837	-0.01666449918692676
-0.11686220264051125	2.1358009369908313	-0.01666449918692676
0.5697760561128584	12.123741903155281	-0.01666449918692676
2.208543970346893	22.000317038600915	-0.01666449918692676
4.784425840814298	31.674925503459367	-0.01666449918692676
8.273813465443801	41.05886444446497	-0.01666449918692676
12.644723009187631	50.06609517853705	-0.01666449918692676
17.85708816882214	58.61403205713146	-0.01666449918692676
23.863127444006768	66.62429967891462	-0.01666449918692676
30.60778214798121	74.02345150801524	-0.01666449918692676
38.02922114267818	80.74364330889699	-0.01666449918692676
46.05940767123384	86.72325522309414	-0.01666449918692676
54.62472309149944	91.90745678387098	-0.01666449918692676
63.64664179241822	96.24870968798169	-0.01666449918692676
73.04245110581023	99.70720371433025	-0.01666449918692676
82.72600961351613	102.25122179222657	-0.01666449918692676
92.60853689776337	103.85743087148445	-0.01666449918692676
102.59942749426965	104.51109592685738	-0.01666449918692676
112.60708158563223	104.206215134022	-0.01666449918692676
122.53974481899857	102.94557497703369	-0.01666449918692676
132.30634954829088	100.74072478127067	-0.01666449918692676
141.81734978812432	97.61187090462032	-0.01666449918692676
150.9855422241422	93.58769155627154	-0.01666449918692676
159.72686575226155	88.70507394020645	-0.01666449918692676
167.96117221611058	83.0087761326609	-0.01666449918692676
175.6129612759383	76.55101679291738	-0.01666449918692676
182.61207267107187	69.39099646847653	-0.01666449918692676
188.89432952856794	61.594354882862284	-0.01666449918692676
194.4021268194767	53.23256918129258	-0.01666449918692676
199.08495956699358	44.38229865081872	-0.01666449918692676
202.89988596310428	35.12468192233196	-0.01666449918692676
205.8119211470735	25.54459309755702	-0.01666449918692676
207.79435803480672	15.729863620806215	-0.01666449918692676
208.829012256807	5.770476938972305	-0.01666449918692676
208.90637593604407	-4.2426849195654945	-0.01666449918692676
208.02566879004198	-14.217951207277416	-0.01666449918692676
206.19493643181013	-24.063307765323465	-0.01666449918692676
203.43095506150436	-33.688480690784466	-0.01666449918692676
199.7590574943319	-43.00522020967995	-0.01666449918692676
195.21290094681913	-51.92810358934119	-0.01666449918692676
189.83415852925407	-60.37531835695723	-0.01666449918692676
183.67213724211385	-68.26941242488131	-0.01666449918692676
176.78332597817553	-75.53800424492067	-0.01666449918692676
169.23087767378107	-82.11444648024072	-0.01666449918692676
161.08403035651318	-87.93843710962553	-0.01666449918692676
152.41747239680672	-92.95657236074423	-0.01666449918692676
143.31065778263414	-97.12283640235742	-0.01666449918692676
133.84707769466115	-100.39902330517359	-0.01666449918692676
124.11349505998818	-102.7550874020134	-0.01666449918692676
114.19914910208101	-104.16941883437272	-0.01666449918692676
104.19493717964461	-104.6290417583658	-0.01666449918692676
94.19258141548833	-104.12973339210235	-0.01666449918692676
84.28378775595003	-102.67606281229375	-0.01666449918692676
74.55940517091707	-100.28134914364884	-0.01666449918692676
65.10859270326375	-96.9675395236555	-0.01666449918692676
56.01800200462901	-92.76500796088594	-0.01666449918692676
47.3709828525418	-87.71227693025234	-0.01666449918692676
39.24681893326884	-81.85566425704008	-0.01666449918692676
31.720000897335932	-75.24885852655261	-0.01666449918692676
24.859543353006245	-67.9524269115409	-0.01666449918692676
18.72835206021909	-60.03325992924845	-0.01666449918692676
13.382647127288982	-51.563958218200405	-0.01666449918692676
8.871447499261976	-42.622166956502234	-0.01666449918692676
5.236121464925209	-33.28986402350717	-0.01666449918692676
2.510007304222008	-23.652608430871066	-0.01666449918692676
0.7181075547848252	-13.798755913339585	-0.01666449918692676
-0.12314023500586647	-3.81863783836266	-0.01666449918692676
-0.19166421677734602	-0.032027119484727876	-0.01666449918692676
-0.0059918577980570585	6.196828833741066	-0.01666449918692676
1.0685489205558265	16.15561450550967	-0.01666449918692676
3.0906504152882603	25.966021024982684	-0.01666449918692676
6.041781818488788	35.538100975190815	-0.01666449918692676
9.894894403688191	44.78409119507381	-0.01666449918692676
14.614669442140885	53.61921745017067	-0.01666449918692676
20.15784194434437	61.96247170693849	-0.01666449918692676
26.473597259289058	69.73735488404212	-0.01666449918692676
33.504036895913075	76.87257827043287	-0.01666449918692676
41.18470929654485	83.30271717893109	-0.01666449918692676
49.445200696568094	88.96881084189646	-0.01666449918692676
58.20978065360354	93.81890304838892	-0.01666449918692676
67.39809632821799	97.80851856548085	-0.01666449918692676
76.92590915114157	100.90107097509447	-0.01666449918692676
86.70586712329818	103.06819818651041	-0.01666449918692676
96.64830566819498	104.29002254775993	-0.01666449918692676
106.6620696943711	104.55533317039497	-0.01666449918692676
116.6553493310763	103.86168879529009	-0.01666449918692676
126.5365216749173	102.21544025562825	-0.01666449918692676
136.21499083003056	99.63167233038358	-0.01666449918692676
145.6020185399123	96.13406552067258	-0.01666449918692676
154.61153779522857	91.75467901553482	-0.01666449918692676
163.16094195793863	86.53365683628179	-0.01666449918692676
171.17184216647743	80.51885985290686	-0.01666449918692676
178.57078607748562	73.76542704570781	-0.01666449918692676
185.28993135399827	66.33527003401662	-0.01666449918692676
191.26766772484342	58.29650550580373	-0.01666449918692676
196.44918191147244	49.722830751318234	-0.01666449918692676
200.78696024220073	40.692848025619575	-0.01666449918692676
204.24122434510275	31.28934393406866	-0.01666449918692676
206.7802959243276	21.598530447271386	-0.01666449918692676
208.3808872747564	11.709254503825864	-0.01666449918692676
209.02831416163946	1.7121230997896215	-0.01666449918692676
208.71659679884513	-8.30185230175039	-0.01666449918692676
207.4485298893344	-18.240384149353858	-0.01666449918692676
205.23572566473285	-28.01212030470742	-0.01666449918692676
202.09846340407066	-37.52746772852593	-0.01666449918692676
198.06549840407382	-46.69918324239146	-0.01666449918692676
193.17379841592202	-55.4431734335562	-0.01666449918692676
187.4682047842491	-63.67926568866856	-0.01666449918692676
181.00102139452017	-71.3319432869876	-0.01666449918692676
173.83153519683097	-78.33103781310213	-0.01666449918692676
166.02547270154693	-84.61237254042366	-0.01666449918692676
157.6543974292783	-90.11835088618493	-0.01666449918692676
148.7950538390886	-94.79848454222953	-0.01666449918692676
139.52866374959618	-98.60985643890722	-0.01666449918692676
129.94018170324887	-101.51751429682378	-0.01666449918692676
120.11751610053734	-103.49479115755585	-0.01666449918692676
110.15072324481189	-104.52354995389533	-0.01666449918692676
100.13118168680201	-104.59434987660215	-0.01666449918692676
90.15075443862223	-103.7065330116235	-0.01666449918692676
80.30094673833956	-101.86823045272205	-0.01666449918692676
70.6720670870408	-99.09628783272962	-0.01666449918692676
61.35239925040455	-95.41611095545073	-0.01666449918692676
52.42739281632689	-90.8614329427937	-0.01666449918692676
43.97887973008977	-85.47400503130756	-0.01666449918692676
36.084323990454706	-79.303213852334	-0.01666449918692676
28.81611138609717	-72.40562870404207	-0.01666449918692676
22.2408857847537	-64.84448296550845	-0.01666449918692676
16.41893806069674	-56.68909440685975	-0.01666449918692676
11.403653263597795	-48.01422970976431	-0.01666449918692676
7.241021097908994	-38.89941902411178	-0.01666449918692676
3.969214201480528	-29.42822684486441	-0.01666449918692676
1.618238090560605	-19.68748589359531	-0.01666449918692676
0.2096559812911535	-9.76650102848032	-0.01666449918692676
