# EMSIM OUTPUT FILE 
# PARAMETERS OF SIMULATION RUN 
# ---------------------------- 
# Mode               : 1 
# Magnetic field?      true
# Failing field?       false
# Point charge?        false
# Electric field?      true
# Magnetic strength  : 1.0E-7T 
# Electric strength  : 1.0E-7NC^-1 
# Phase              : 1.5707963267948966
# Algorithm          : 3
# Time-step          : 1.0E-5s 
# Number of Turns    : 50.0
# Number of particles: 50
# Spread in x        : 0.0010439684858214947m 
# Spread in y        : 0.0010439684858214947m 
# Spread in z        : 0.0010439684858214947m 
# Intial average v   : 1000.0ms^-1 
# Intial v_sigma     : 1.0E-5ms^-1 
# ----------------------------- 
Spread in x 	 Spread in y 	 Spread in z 
0.0010709133830558715	9.787628896997802E-4	0.0010600357239062797
0.0010709244439910393	9.787178758742243E-4	0.0010600357239062797
0.0010709427662609627	9.786736910584182E-4	0.0010600357239062797
0.0010709681819207617	9.786307403487626E-4	0.0010600357239062797
0.001071000458022553	9.785894176488341E-4	0.0010600357239062797
0.0010710392986936768	9.785501018058085E-4	0.0010600357239062797
0.001071084347895379	9.785131532709102E-4	0.0010600357239062797
0.0010711351926886437	9.784789106532799E-4	0.0010600357239062797
0.001071191366904145	9.78447688083861E-4	0.0010600357239062797
0.001071252355757224	9.784197718971654E-4	0.0010600357239062797
0.0010713175997238977	9.783954180875298E-4	0.0010600357239062797
0.0010713865010743007	9.78374849992747E-4	0.0010600357239062797
0.00107145842787304	9.783582561340154E-4	0.0010600357239062797
0.0010715327206014535	9.783457886953784E-4	0.0010600357239062797
0.001071608698197224	9.783375620173729E-4	0.0010600357239062797
0.0010716856644421568	9.78333651701746E-4	0.0010600357239062797
0.0010717629134262552	9.78334093616695E-4	0.0010600357239062797
0.0010718397367952548	9.783388833426443E-4	0.0010600357239062797
0.0010719154303444611	9.783479772806913E-4	0.0010600357239062797
0.0010719892998736213	9.783612922973361E-4	0.0010600357239062797
0.0010720606680933997	9.783787060371196E-4	0.0010600357239062797
0.0010721288816171182	9.78400059238993E-4	0.0010600357239062797
0.0010721933136039752	9.784251558357937E-4	0.0010600357239062797
0.0010722533734508488	9.784537660664228E-4	0.0010600357239062797
0.0010723085113113484	9.784856274279718E-4	0.0010600357239062797
0.0010723582210232507	9.785204478092169E-4	0.0010600357239062797
0.0010724020464465411	9.785579080983098E-4	0.0010600357239062797
0.0010724395866645864	9.785976647052053E-4	0.0010600357239062797
0.0010724704968083643	9.78639353441224E-4	0.0010600357239062797
0.001072494493968179	9.786825918247644E-4	0.0010600357239062797
0.001072511356966288	9.787269836074586E-4	0.0010600357239062797
0.0010725209326665208	9.787721216767409E-4	0.0010600357239062797
0.0010725231323647222	9.788175922649245E-4	0.0010600357239062797
0.0010725179353698877	9.788629784708291E-4	0.0010600357239062797
0.001072505389657863	9.78907864176648E-4	0.0010600357239062797
0.0010724856100807756	9.78951837844022E-4	0.0010600357239062797
0.0010724587783101924	9.789944961298147E-4	0.0010600357239062797
0.001072425139597044	9.790354483598662E-4	0.0010600357239062797
0.001072385003084264	9.790743186073314E-4	0.0010600357239062797
0.0010723387362645553	9.791107505066066E-4	0.0010600357239062797
0.0010722867634740396	9.791444104791935E-4	0.0010600357239062797
0.0010722295611458321	9.79174989367948E-4	0.0010600357239062797
0.0010721676538025804	9.792022069206041E-4	0.0010600357239062797
0.0010721016089689783	9.792258136656073E-4	0.0010600357239062797
0.0010720320315726894	9.792455927595256E-4	0.0010600357239062797
0.001071959559823199	9.792613631702807E-4	0.0010600357239062797
0.0010718848586179774	9.792729804445344E-4	0.0010600357239062797
0.001071808612238101	9.792803379014003E-4	0.0010600357239062797
0.0010717315198860433	9.7928336772668E-4	0.0010600357239062797
0.0010716542885518265	9.792820422660498E-4	0.0010600357239062797
0.001071577625879172	9.792763739540078E-4	0.0010600357239062797
0.001071502235035382	9.792664145606977E-4	0.0010600357239062797
0.0010714288072506406	9.792522553482286E-4	0.0010600357239062797
0.0010713580158920877	9.79234025948017E-4	0.0010600357239062797
0.0010712905098415604	9.79211893636034E-4	0.0010600357239062797
0.0010712269080954684	9.791860611869652E-4	0.0010600357239062797
0.0010711677938815	9.791567652399635E-4	0.0010600357239062797
0.0010711137091590217	9.791242745080808E-4	0.0010600357239062797
0.0010710651499508117	9.790888867939884E-4	0.0010600357239062797
0.00107102256128222	9.790509266025538E-4	0.0010600357239062797
0.0010709863339073422	9.790107421139282E-4	0.0010600357239062797
0.0010709567999400704	9.78968701339511E-4	0.0010600357239062797
0.001070934230226861	9.789251901182183E-4	0.0010600357239062797
0.0010709188317807872	9.788806071906464E-4	0.0010600357239062797
0.001070910745825382	9.78835361276964E-4	0.0010600357239062797
0.0010709094378227937	9.788082954972025E-4	0.0010600357239062797
0.0010709100465732257	9.787898672177775E-4	0.0010600357239062797
0.001070916740499861	9.7874454212743E-4	0.0010600357239062797
0.0010709307662990497	9.786998015712811E-4	0.0010600357239062797
0.0010709519954454905	9.78656055742988E-4	0.0010600357239062797
0.001070980233372154	9.786137056764233E-4	0.0010600357239062797
0.0010710152212070057	9.785731398039843E-4	0.0010600357239062797
0.001071056638274115	9.785347298532088E-4	0.0010600357239062797
0.001071104104870102	9.784988281467122E-4	0.0010600357239062797
0.0010711571859189917	9.784657638647332E-4	0.0010600357239062797
0.001071215394610192	9.784358402669113E-4	0.0010600357239062797
0.0010712781976494057	9.78409331693797E-4	0.0010600357239062797
0.0010713450190209528	9.78386481122584E-4	0.0010600357239062797
0.0010714152461872573	9.783674980781143E-4	0.0010600357239062797
0.0010714882352829136	9.783525568849427E-4	0.0010600357239062797
0.0010715633171685113	9.783417942941242E-4	0.0010600357239062797
0.001071639803257085	9.783353093126834E-4	0.0010600357239062797
0.0010717169925840153	9.783331611998847E-4	0.0010600357239062797
0.0010717941775197914	9.7833536960934E-4	0.0010600357239062797
0.0010718706501791075	9.783419141768945E-4	0.0010600357239062797
0.0010719457094694462	9.78352735657495E-4	0.0010600357239062797
0.0010720186674006982	9.783677343904174E-4	0.0010600357239062797
0.001072088854670028	9.783867725872142E-4	0.0010600357239062797
0.0010721556282646816	9.784096763070238E-4	0.0010600357239062797
0.001072218375071543	9.784362353997267E-4	0.0010600357239062797
0.0010722765208015517	9.784662061207428E-4	0.0010600357239062797
0.0010723295316665826	9.784993142432086E-4	0.0010600357239062797
0.0010723769220817303	9.78535255818258E-4	0.0010600357239062797
0.0010724182565695628	9.785737014951224E-4	0.0010600357239062797
0.0010724531567518625	9.7861429885171E-4	0.0010600357239062797
0.001072481303111772	9.78656675677314E-4	0.0010600357239062797
0.0010725024368696268	9.787004434009816E-4	0.0010600357239062797
0.0010725163641325253	9.787452007241626E-4	0.0010600357239062797
0.0010725229568606665	9.787905373888073E-4	0.0010600357239062797
0.0010725221553400388	9.788360377225302E-4	0.0010600357239062797
0.0010725139664202743	9.788812845172856E-4	0.0010600357239062797
0.0010724984649073122	9.789258629488984E-4	0.0010600357239062797
0.0010724757933644469	9.789693643824648E-4	0.0010600357239062797
0.0010724461595543744	9.790113898944242E-4	0.0010600357239062797
0.001072409834989685	9.790515540117894E-4	0.0010600357239062797
0.0010723671524317524	9.790894885597368E-4	0.0010600357239062797
0.0010723185031622506	9.791248459549706E-4	0.0010600357239062797
0.0010722643331462223	9.791573018134159E-4	0.0010600357239062797
0.001072205139507787	9.791865583252957E-4	0.0010600357239062797
0.0010721414645331606	9.792123477865289E-4	0.0010600357239062797
0.0010720738919758332	9.792344331600589E-4	0.0010600357239062797
0.0010720030413153836	9.792526121543688E-4	0.0010600357239062797
0.0010719295620447156	9.792667181898196E-4	0.0010600357239062797
0.0010718541281562466	9.792766216634163E-4	0.0010600357239062797
0.00107177743086595	9.792822317535865E-4	0.0010600357239062797
0.0010717001734263931	9.792834970738795E-4	0.0010600357239062797
0.0010716230643481595	9.792804059856053E-4	0.0010600357239062797
0.0010715468102802106	9.792729867825756E-4	0.0010600357239062797
0.0010714721107660807	9.792613073358325E-4	0.0010600357239062797
0.001071399650584226	9.792454749799617E-4	0.0010600357239062797
0.0010713300940281556	9.792256347509465E-4	0.0010600357239062797
0.00107126407864655	9.792019681498232E-4	0.0010600357239062797
0.0010712022100136664	9.79174692602669E-4	0.0010600357239062797
0.0010711450553912982	9.79144057723147E-4	0.0010600357239062797
0.001071093138765633	9.791103445593308E-4	0.0010600357239062797
0.0010710469361470132	9.790738623323136E-4	0.0010600357239062797
0.0010710068712995735	9.79034945274293E-4	0.0010600357239062797
0.001070973311517065	9.789939502269362E-4	0.0010600357239062797
0.0010709465645843963	9.78951253234328E-4	0.0010600357239062797
0.0010709268758009038	9.789072454644554E-4	0.0010600357239062797
0.0010709144257384784	9.788623304984867E-4	0.0010600357239062797
0.0010709093286035698	9.788169201474517E-4	0.0010600357239062797
0.0010709091963884143	9.788083160245302E-4	0.0010600357239062797
0.0010709116312017375	9.787714307343265E-4	0.0010600357239062797
0.0010709213124904249	9.787262793068408E-4	0.0010600357239062797
0.0010709382837790216	9.786818798787067E-4	0.0010600357239062797
0.0010709623895257536	9.786386394381452E-4	0.0010600357239062797
0.0010709934087635986	9.785969545177409E-4	0.0010600357239062797
0.001071031057204408	9.785572072047444E-4	0.0010600357239062797
0.0010710749897313576	9.785197620857389E-4	0.0010600357239062797
0.0010711248035804033	9.784849624026037E-4	0.0010600357239062797
0.001071180042082176	9.784531275869313E-4	0.0010600357239062797
0.00107124019878313	9.784245490322974E-4	0.0010600357239062797
0.0010713047223305239	9.78399488985815E-4	0.0010600357239062797
0.0010713730210056838	9.78378177407535E-4	0.0010600357239062797
0.0010714444689057245	9.783608092845952E-4	0.0010600357239062797
0.001071518410881822	9.78347544290159E-4	0.0010600357239062797
0.0010715941690051523	9.783385038986125E-4	0.0010600357239062797
0.0010716710484786063	9.78333771129769E-4	0.0010600357239062797
0.0010717483448274834	9.783333892130486E-4	0.0010600357239062797
0.0010718253492001395	9.783373619285385E-4	0.0010600357239062797
0.0010719013556013124	9.78345652967505E-4	0.0010600357239062797
0.0010719756672301628	9.783581861029234E-4	0.0010600357239062797
0.001072047602406201	9.78374846468455E-4	0.0010600357239062797
0.0010721165021720935	9.783954814395202E-4	0.0010600357239062797
0.0010721817341163842	9.784199019549078E-4	0.0010600357239062797
0.001072242699990511	9.784478839804933E-4	0.0010600357239062797
0.0010722988417910528	9.784791711382468E-4	0.0010600357239062797
0.0010723496440618874	9.785134767099635E-4	0.0010600357239062797
0.001072394641369101	9.785504858541572E-4	0.0010600357239062797
0.0010724334208873643	9.785898594216746E-4	0.0010600357239062797
0.0010724656268052968	9.786312365918093E-4	0.0010600357239062797
0.0010724909642192415	9.786742378778968E-4	0.0010600357239062797
0.0010725092007817238	9.787184690850381E-4	0.0010600357239062797
0.0010725201683499108	9.78763524695836E-4	0.0010600357239062797
0.0010725237675615062	9.788089916556442E-4	0.0010600357239062797
0.0010725199643388805	9.788544530842103E-4	0.0010600357239062797
0.0010725087937260014	9.788994921500205E-4	0.0010600357239062797
0.0010724903579841794	9.789436958627107E-4	0.0010600357239062797
0.0010724648260520553	9.789866588789664E-4	0.0010600357239062797
0.0010724324329203228	9.790279875687702E-4	0.0010600357239062797
0.0010723934747716157	9.790673028433616E-4	0.0010600357239062797
0.0010723483086962915	9.791042442515163E-4	0.0010600357239062797
0.0010722973487702347	9.791384728146113E-4	0.0010600357239062797
0.0010722410619337097	9.79169675048297E-4	0.0010600357239062797
0.001072179964296538	9.791975647033269E-4	0.0010600357239062797
0.001072114616476938	9.792218860269486E-4	0.0010600357239062797
0.001072045616780315	9.79242416306647E-4	0.0010600357239062797
0.0010719735985844636	9.79258966708585E-4	0.0010600357239062797
0.001071899221642525	9.792713856882074E-4	0.0010600357239062797
0.0010718231679902601	9.7927955944499E-4	0.0010600357239062797
0.0010717461348974666	9.792834129740413E-4	0.0010600357239062797
0.0010716688287573106	9.792829108050682E-4	0.0010600357239062797
0.001071591958250906	9.792780576276527E-4	0.0010600357239062797
0.001071516227980851	9.79268897737029E-4	0.0010600357239062797
0.0010714423326874112	9.79255515247246E-4	0.0010600357239062797
0.0010713709496172896	9.7923803279798E-4	0.0010600357239062797
0.0010713027332229785	9.792166102613464E-4	0.0010600357239062797
0.0010712383090734079	9.791914445997918E-4	0.0010600357239062797
0.0010711782679635462	9.791627663844338E-4	0.0010600357239062797
0.0010711231604041416	9.79130838089759E-4	0.0010600357239062797
0.0010710734914098907	9.790959528430676E-4	0.0010600357239062797
0.0010710297166180993	9.790584303530636E-4	0.0010600357239062797
0.0010709922374125824	9.790186144940094E-4	0.0010600357239062797
0.001070961397461545	9.789768706198743E-4	0.0010600357239062797
0.0010709374795978555	9.789335809955446E-4	0.0010600357239062797
0.0010709207031793788	9.78889142761119E-4	0.0010600357239062797
0.0010709112220757266	9.788439632867352E-4	0.0010600357239062797
0.001070915178870785	9.79057884633881E-4	0.0010600357239062797
0.0010709215789475035	9.791511813563858E-4	0.0010600357239062797
0.0010709834296763754	9.795805726771079E-4	0.0010600357239062797
0.001071097786228048	9.80002887789766E-4	0.0010600357239062797
0.0010712636006191545	9.804142546308015E-4	0.0010600357239062797
0.0010714793530350875	9.808109015594368E-4	0.0010600357239062797
0.00107174306583957	9.811891917834714E-4	0.0010600357239062797
0.0010720523216569688	9.815456567849878E-4	0.0010600357239062797
0.0010724042855194682	9.818770282379319E-4	0.0010600357239062797
0.001072795730763687	9.821802675844538E-4	0.0010600357239062797
0.0010732230689924904	9.824525944281959E-4	0.0010600357239062797
0.0010736823823407349	9.826915115525026E-4	0.0010600357239062797
0.0010741694599971652	9.828948283256977E-4	0.0010600357239062797
0.0010746798364209553	9.830606804825948E-4	0.0010600357239062797
0.001075208832716612	9.831875466517204E-4	0.0010600357239062797
0.0010757515986057342	9.832742635609293E-4	0.0010600357239062797
0.0010763031581575433	9.833200357576288E-4	0.0010600357239062797
0.0010768584546951843	9.833244430126342E-4	0.0010600357239062797
0.0010774123966967863	9.83287444881853E-4	0.0010600357239062797
0.0010779599052881395	9.832093800667963E-4	0.0010600357239062797
0.001078495960911141	9.830909640413665E-4	0.0010600357239062797
0.0010790156484574709	9.82933281633791E-4	0.0010600357239062797
0.0010795142031838623	9.827377787843261E-4	0.0010600357239062797
0.0010799870537709921	9.825062471691126E-4	0.0010600357239062797
0.0010804298652828948	9.822408098045798E-4	0.0010600357239062797
0.001080838576399401	9.819438992337837E-4	0.0010600357239062797
0.0010812094406844608	9.816182379438487E-4	0.0010600357239062797
0.0010815390571963235	9.812668112729739E-4	0.0010600357239062797
0.0010818244032577695	9.80892840985348E-4	0.0010600357239062797
0.0010820628624230721	9.804997556130957E-4	0.0010600357239062797
0.0010822522482669683	9.800911590218675E-4	0.0010600357239062797
0.001082390823711421	9.796707972569152E-4	0.0010600357239062797
0.001082477317794428	9.79242524294932E-4	0.0010600357239062797
0.0010825109368113317	9.788102665924114E-4	0.0010600357239062797
0.0010824913723013196	9.783779872476472E-4	0.0010600357239062797
0.0010824239787154966	9.772109004018148E-4	0.0010600357239062797
0.0010823169515390418	9.759753507907476E-4	0.0010600357239062797
0.0010821713377708875	9.747657639422869E-4	0.0010600357239062797
0.0010819884721797735	9.735932300500849E-4	0.0010600357239062797
0.0010817700312486522	9.724684998886346E-4	0.0010600357239062797
0.001081518017116423	9.714018857209794E-4	0.0010600357239062797
0.001081234739814363	9.704031675283886E-4	0.0010600357239062797
0.0010809227974561963	9.694815020964143E-4	0.0010600357239062797
0.001080585048185867	9.686453408477291E-4	0.0010600357239062797
0.0010802245895717988	9.679023506237172E-4	0.0010600357239062797
0.0010798447259219301	9.672593445344546E-4	0.0010600357239062797
0.0010794489398335827	9.667222186919844E-4	0.0010600357239062797
0.0010790408597927126	9.662958985074965E-4	0.0010600357239062797
0.0010786242270199864	9.659842941829311E-4	0.0010600357239062797
0.0010782028611799888	9.657902633932736E-4	0.0010600357239062797
0.0010777806260193756	9.657155862328182E-4	0.0010600357239062797
0.0010773613923902303	9.657609484179375E-4	0.0010600357239062797
0.0010769490042292773	9.659259351479932E-4	0.0010600357239062797
0.001076547242490733	9.662090347006824E-4	0.0010600357239062797
0.0010761597906423503	9.666076525292056E-4	0.0010600357239062797
0.001075790201362281	9.671181352928215E-4	0.0010600357239062797
0.0010754418632572538	9.6773580381182E-4	0.0010600357239062797
0.0010751179703447633	9.684549956858746E-4	0.0010600357239062797
0.0010748214923133048	9.692691182721092E-4	0.0010600357239062797
0.0010745551476745163	9.701707080296273E-4	0.0010600357239062797
0.0010743213787378636	9.711514995842663E-4	0.0010600357239062797
0.0010741223290526847	9.722025014369251E-4	0.0010600357239062797
0.0010739598239180026	9.733140779459859E-4	0.0010600357239062797
0.001073835353574637	9.744760384862161E-4	0.0010600357239062797
0.0010737500595889848	9.756777301639374E-4	0.0010600357239062797
0.001073704724322	9.76908135646326E-4	0.0010600357239062797
0.0010736997637961765	9.781559742281232E-4	0.0010600357239062797
0.0010737084253727436	9.786298385776522E-4	0.0010600357239062797
0.0010737353719545359	9.793441007834858E-4	0.0010600357239062797
0.0010738285210221132	9.799432004591324E-4	0.0010600357239062797
0.0010739902135874502	9.80531900783177E-4	0.0010600357239062797
0.0010742189678119018	9.811048040759829E-4	0.0010600357239062797
0.0010745126869764476	9.816566576077435E-4	0.0010600357239062797
0.0010748686787493966	9.821824015432412E-4	0.0010600357239062797
0.0010752836798424426	9.826772155250296E-4	0.0010600357239062797
0.0010757538858037208	9.831365626808974E-4	0.0010600357239062797
0.0010762749861541465	9.835562309206125E-4	0.0010600357239062797
0.0010768422037301661	9.839323723070947E-4	0.0010600357239062797
0.0010774503383856882	9.842615379085373E-4	0.0010600357239062797
0.001078093814790293	9.845407089841274E-4	0.0010600357239062797
0.0010787667339400286	9.847673256189182E-4	0.0010600357239062797
0.0010794629259578414	9.849393098733117E-4	0.0010600357239062797
0.0010801760083154477	9.85055084285591E-4	0.0010600357239062797
0.0010808994434370334	9.851135872622763E-4	0.0010600357239062797
0.0010816265984345819	9.85114281178312E-4	0.0010600357239062797
0.0010823508066977183	9.850571597382896E-4	0.0010600357239062797
0.001083065428318264	9.849427455890236E-4	0.0010600357239062797
0.001083763910912694	9.847720875910682E-4	0.0010600357239062797
0.0010844398504445962	9.845467498621474E-4	0.0010600357239062797
0.001085087049688127	9.84268797679988E-4	0.0010600357239062797
0.0010856995748440568	9.839407792497923E-4	0.0010600357239062797
0.0010862718092425894	9.83565701304201E-4	0.0010600357239062797
0.0010867985056108864	9.831470024010969E-4	0.0010600357239062797
0.0010872748357257933	9.826885207928626E-4	0.0010600357239062797
0.0010876964310000403	9.821944599082144E-4	0.0010600357239062797
0.001088059425683241	9.816693489241857E-4	0.0010600357239062797
0.0010883604910532085	9.81118002265191E-4	0.0010600357239062797
0.001088596866708258	9.805454744054032E-4	0.0010600357239062797
0.001088766384924611	9.79957014557442E-4	0.0010600357239062797
0.001088867490040002	9.793580178243388E-4	0.0010600357239062797
