# EMSIM OUTPUT FILE 
# PARAMETERS OF SIMULATION RUN 
# ---------------------------- 
# Mode               : 10 
# Magnetic field?      true
# Failing field?       false
# Point charge?        false
# Electric field?      true
# Magnetic strength  : 1.0E-7T 
# Electric strength  : 1.0E-7NC^-1 
# Phase              : 1.5707963267948966
# Algorithm          : 3
# Time-step          : 1.0E-4s 
# Number of Turns    : 10.0
# Number of particles: 10
# Spread in x        : 1.0439684858214946m 
# Spread in y        : 1.0439684858214946m 
# Spread in z        : 1.0439684858214946m 
# Intial average v   : 1000.0ms^-1 
# Intial v_sigma     : 0.01ms^-1 
# ----------------------------- 
Turn Num 	 deltaV 
1.0	3.2143899545675367
2.0	3.2219874764372207
3.0	3.2326410562288856
4.0	3.240195215427434
5.0	3.25081083714997
6.0	3.258607798868752
7.0	3.268994797500568
8.0	3.2773222612738664
9.0	3.2877688950243282
10.0	3.2954793707888257
11.0	3.304933931817004
12.0	3.3155639841465927
13.0	3.323736323251296
14.0	3.3343302936350483
15.0	3.3422700412402264
16.0	3.3534013058319943
17.0	3.361107489221922
18.0	3.37249021485286
19.0	3.380442902925097
20.0	3.389961317588586
21.0	3.4011485464650377
22.0	3.409373743108972
23.0	3.420335888184127
24.0	3.428807462880968
25.0	3.4400217792999683
26.0	3.4481668970900046
27.0	3.4596342695035673
28.0	3.467547855319708
29.0	3.4795562708245598
30.0	3.4877177364039653
31.0	3.4972723683990807
32.0	3.50908727835008
33.0	3.5177164861004258
34.0	3.528639177381365
35.0	3.53770609746266
36.0	3.5493631946521873
37.0	3.557915056392403
38.0	3.5691563950797445
39.0	3.578435860132231
40.0	3.5885506932634144
41.0	3.5997939383507855
42.0	3.6094471576884644
43.0	3.6210441479490783
44.0	3.629513571922189
45.0	3.6415570104620656
46.0	3.6503723965959125
47.0	3.662481680038809
48.0	3.6713566027799516
49.0	3.683533279200674
50.0	3.6925635151906135
51.0	3.7033099895706982
52.0	3.7153003645782974
53.0	3.7243257357670245
54.0	3.7365747921928687
55.0	3.7460437295665088
56.0	3.7579779960958604
57.0	3.767412849049151
58.0	3.7798939545334633
59.0	3.788912102661243
60.0	3.8000446891223874
61.0	3.8125335146582984
62.0	3.8214532442902964
63.0	3.83458483008485
64.0	3.8438552126224295
65.0	3.8565784188008365
66.0	3.866102972989438
67.0	3.878993198483613
68.0	3.8882939807649564
69.0	3.9009676895057055
70.0	3.911097449095905
71.0	3.9220232034624587
72.0	3.9353777219912445
73.0	3.9449358863980706
74.0	3.95769322112983
75.0	3.9679845514942826
76.0	3.9803358033630047
77.0	3.990883895952493
78.0	4.003786936536244
79.0	4.013731033554677
80.0	4.025445380500514
81.0	4.038553633587071
82.0	4.04878851573153
83.0	4.061779818418472
84.0	4.072464194739041
85.0	4.085434469552183
86.0	4.095611784060338
87.0	4.1094218420780635
88.0	4.1193801520732904
89.0	4.133169969586561
90.0	4.143388198624052
91.0	4.15549216182535
92.0	4.168822046127616
93.0	4.179716430759299
94.0	4.193505525359797
95.0	4.2038003541563285
96.0	4.217953285060503
97.0	4.228125856838005
98.0	4.24245231532791
99.0	4.252982067231642
100.0	4.26532071263432
101.0	4.279382280549726
102.0	4.289921657978766
103.0	4.304443633462597
104.0	4.315246687113813
105.0	4.3293699632461085
106.0	4.340435478618247
107.0	4.354543072663091
108.0	4.3658720373632605
109.0	4.378551101184712
110.0	4.392492188933602
111.0	4.404121166001232
112.0	4.418334927088154
113.0	4.429558226966719
114.0	4.444332207732714
115.0	4.4555343679844555
116.0	4.470102322362436
117.0	4.481761535378837
118.0	4.496413154161701
119.0	4.507572274908171
120.0	4.521445193603995
121.0	4.535456237127164
122.0	4.547492766422238
123.0	4.562449103284962
124.0	4.573988485909467
125.0	4.5889320828976
126.0	4.600835084728942
127.0	4.615960044421854
128.0	4.6275564659301835
129.0	4.641407559579875
130.0	4.656278056652354
131.0	4.668468598281152
132.0	4.683712118473295
133.0	4.695789686411217
134.0	4.711311686388626
135.0	4.723276382574795
136.0	4.7386939151460865
137.0	4.751119818534789
138.0	4.766721492418355
139.0	4.778939851646783
140.0	4.792960086945413
141.0	4.808694016773643
142.0	4.821032695277609
143.0	4.836760386226388
144.0	4.849562223252406
145.0	4.865284481708613
146.0	4.877976134293704
147.0	4.8936926986662
148.0	4.906944475819955
149.0	4.920870981710095
150.0	4.93710660808938
151.0	4.9500037640441406
152.0	4.966235841893422
153.0	4.9791202439071185
154.0	4.995445465943249
155.0	5.008508507980878
156.0	5.024543362219902
157.0	5.0380732656681175
158.0	5.054105428298726
159.0	5.067336674928356
160.0	5.082225563584643
161.0	5.098781110438267
162.0	5.112331673480185
163.0	5.129078700175569
164.0	5.142427901337669
165.0	5.159174666924173
166.0	5.172706166583566
167.0	5.189740422036266
168.0	5.202975591960694
169.0	5.218656717505837
170.0	5.235549297044827
171.0	5.249394375972315
172.0	5.266384297947525
173.0	5.2802219486256945
174.0	5.297596975648958
175.0	5.311428447398157
176.0	5.328710339742429
177.0	5.342534370174235
178.0	5.360394943573738
179.0	5.374117719538162
180.0	5.390410122781304
181.0	5.407847134270469
182.0	5.421897055662839
183.0	5.439913376871573
184.0	5.453863594954328
185.0	5.471884491837272
186.0	5.486405933418155
187.0	5.504146416584035
188.0	5.518759647447041
189.0	5.535104705357526
190.0	5.5530000956503045
191.0	5.567752701874724
192.0	5.586039171850189
193.0	5.600311025107203
194.0	5.619180078070258
195.0	5.633738600975448
196.0	5.6519463512881885
197.0	5.6673657501448815
198.0	5.683774265059583
199.0	5.702429382302398
200.0	5.717800370670375
201.0	5.735987236056189
202.0	5.751550660019802
203.0	5.770611422874481
204.0	5.785122823981055
205.0	5.804961689378615
206.0	5.819380035850145
207.0	5.838751230880689
208.0	5.854417038015299
209.0	5.8714849564134965
210.0	5.890639763093759
211.0	5.906643661419139
212.0	5.925333421494543
213.0	5.941437948069961
214.0	5.961004759059961
215.0	5.976347484181815
216.0	5.996601145473733
217.0	6.01185415179657
218.0	6.0300689758093995
219.0	6.049629247024086
220.0	6.06580060267197
221.0	6.085282891382121
222.0	6.101939524321779
223.0	6.121344402102068
224.0	6.138200625494619
225.0	6.157815620188103
226.0	6.174392693352502
227.0	6.19460224618706
228.0	6.211187961461974
229.0	6.2293326586861895
230.0	6.249715856405146
231.0	6.266363892385016
232.0	6.28705638592146
233.0	6.303811004118415
234.0	6.32433494333236
235.0	6.341195865025384
236.0	6.361742070959281
237.0	6.378806106115007
238.0	6.397647046486782
239.0	6.418851547211489
240.0	6.4358871483382245
241.0	6.456733404392708
242.0	6.474260871224942
243.0	6.495132858886336
244.0	6.512578180710079
245.0	6.533955010914269
246.0	6.551415468846244
247.0	6.572819453554075
248.0	6.59039100921018
249.0	6.610061400142513
250.0	6.631651427192082
251.0	6.649007567315948
252.0	6.670913033936358
253.0	6.688669130508515
254.0	6.71069982454901
255.0	6.72847380322537
256.0	6.750439038703007
257.0	6.76871031412702
258.0	6.78882226680571
259.0	6.810978417435763
260.0	6.828943192690076
261.0	6.851610153700221
262.0	6.8701709707515874
263.0	6.892488809997303
264.0	6.910878497048543
265.0	6.933613500145839
266.0	6.9522164914142195
267.0	6.974890830541426
268.0	6.993323777652222
269.0	7.014400277083041
270.0	7.037559333470654
271.0	7.05617193550097
272.0	7.079271382352545
273.0	7.098290835574062
274.0	7.12133166652211
275.0	7.140855366680171
276.0	7.163647493278859
277.0	7.183100168273086
278.0	7.204652445009742
279.0	7.227934585473122
280.0	7.247762729885835
281.0	7.2710856696421615
282.0	7.2907490905381565
283.0	7.314688171245962
284.0	7.33418864035275
285.0	7.358456994343669
286.0	7.378082590316808
287.0	7.3999349470400375
288.0	7.424315448164634
289.0	7.444129651422827
290.0	7.4685543117934685
291.0	7.488590825495521
292.0	7.512964568404641
293.0	7.533511780131903
294.0	7.5580276331238565
295.0	7.578415942746233
296.0	7.603169960105333
297.0	7.6236876014118025
298.0	7.646280278080667
299.0	7.671249162614004
300.0	7.691961357627861
301.0	7.717075273788396
302.0	7.7379181461460576
303.0	7.763369687674185
304.0	7.784152993342104
305.0	7.809751153303296
306.0	7.8305715065380355
307.0	7.854266892431042
308.0	7.8796074422580205
309.0	7.901010871722065
310.0	7.926883393934986
311.0	7.948134554004355
312.0	7.974251630844265
313.0	7.9959264002413875
314.0	8.021715085712913
315.0	8.04390938217739
316.0	8.069754209423536
317.0	8.09179756336107
318.0	8.115992572863433
319.0	8.142066333292405
320.0	8.16469992994871
321.0	8.19083211932275
322.0	8.213221110207996
323.0	8.24017909519307
324.0	8.262229489316724
325.0	8.289438630087716
326.0	8.311917736828036
327.0	8.336296686174592
328.0	8.364123392106649
329.0	8.38624141224227
330.0	8.41413015136186
331.0	8.436679147349878
332.0	8.464055881572222
333.0	8.487323432866106
334.0	8.514668948707822
335.0	8.537888853953064
336.0	8.565970414663298
337.0	8.588665305967425
338.0	8.61502921673491
339.0	8.642588077577784
340.0	8.666269385294981
341.0	8.694662045588757
342.0	8.718012493213337
343.0	8.74685713091867
344.0	8.770260795903596
345.0	8.798982972563408
346.0	8.823111642180265
347.0	8.84922251192802
348.0	8.87829071070746
349.0	8.9022622970474
350.0	8.931402635857467
351.0	8.955910003205645
352.0	8.984740288290595
353.0	9.00949611100259
354.0	9.038592148514454
355.0	9.063405947533283
356.0	9.093056833289666
357.0	9.117642520255231
358.0	9.14492897674927
359.0	9.174550123906101
360.0	9.199848627861684
361.0	9.229547858852584
362.0	9.255003479420338
363.0	9.284877592044722
364.0	9.310491411696148
365.0	9.340541320199009
366.0	9.366314354433598
367.0	9.394254579390235
368.0	9.424761209470944
369.0	9.45048765051115
370.0	9.481268510875907
371.0	9.507156453112202
372.0	9.538213129828819
373.0	9.564263657658103
374.0	9.595213189508286
375.0	9.62161882149121
376.0	9.650136322381059
377.0	9.681933520352686
378.0	9.708203573606625
379.0	9.739800920459402
380.0	9.76642824236933
381.0	9.798018068205238
382.0	9.825291695981377
383.0	9.85697202954907
384.0	9.884030365799845
385.0	9.916184673540556
386.0	9.9431244907978
387.0	9.973282525672857
388.0	10.005335605874734
389.0	10.033106118360138
390.0	10.065636858668768
391.0	10.093099741565311
392.0	10.126108567167194
393.0	10.153648655491452
394.0	10.18675324288688
395.0	10.214850524533631
396.0	10.245155628759676
397.0	10.278454022979076
398.0	10.306621885064033
399.0	10.340210763165032
400.0	10.368747214351515
401.0	10.402148904780006
402.0	10.430958542145618
403.0	10.464461385820869
404.0	10.493545147000532
405.0	10.527534112963167
406.0	10.556414363584736
407.0	10.588132596655669
408.0	10.62222950917021
409.0	10.651668309727938
410.0	10.686254208980245
411.0	10.715588426805425
412.0	10.750568782202663
413.0	10.779703019944463
414.0	10.814886501389992
415.0	10.844684505821533
416.0	10.877175562196499
417.0	10.912571843709884
418.0	10.94236138841643
419.0	10.977868109579504
420.0	11.00813224461308
421.0	11.043943080376721
422.0	11.074492425676908
423.0	11.11022568451699
424.0	11.140964448404702
425.0	11.177004019388278
426.0	11.208029726303721
427.0	11.241519832149606
428.0	11.277782430177922
429.0	11.309288203637607
430.0	11.345669189277032
431.0	11.376985067568967
432.0	11.41386870180304
433.0	11.445092051828851
434.0	11.482479350945596
435.0	11.51409061617278
436.0	11.548502919244129
437.0	11.586025506150236
438.0	11.618124896722293
439.0	11.65558065516825
440.0	11.687974888987355
441.0	11.72545919424283
442.0	11.758245242081102
443.0	11.796144682119575
444.0	11.828940971455722
445.0	11.86696825509307
446.0	11.900158948458738
447.0	11.935638796068815
448.0	11.974387567915073
449.0	12.007310351251817
450.0	12.046190080575343
451.0	12.079606103564402
452.0	12.118810732350994
453.0	12.152146304139478
454.0	12.191484950046743
455.0	12.225028652455421
456.0	12.26215923732434
457.0	12.301462617072502
458.0	12.335991732113598
459.0	12.37543346126904
460.0	12.40998231623962
461.0	12.450042089009912
462.0	12.484516779618389
463.0	12.524812352691697
464.0	12.559693033584153
465.0	12.59716042805394
466.0	12.638100584254971
467.0	12.672825707869379
468.0	12.71419694585893
469.0	12.749140315359
470.0	12.790561123931184
471.0	12.825818685567356
472.0	12.867386582965992
473.0	12.903151632002846
474.0	12.94467697152686
475.0	12.980854493171137
476.0	13.019687344834892
477.0	13.061581479135384
478.0	13.097901854403062
479.0	13.140331784721639
480.0	13.176781384363494
481.0	13.21946128851323
482.0	13.25575327261322
483.0	13.299163373982992
484.0	13.335491375213678
485.0	13.376160157210506
486.0	13.41870444336837
487.0	13.456620949609714
488.0	13.499612199047078
489.0	13.537472255211469
490.0	13.580815521708246
491.0	13.618908152547192
492.0	13.662413130714413
493.0	13.700931274323011
494.0	13.744504045286703
495.0	13.783448975009378
496.0	13.824124979591033
497.0	13.869334433562472
498.0	13.907390263873822
499.0	13.952767084533662
500.0	13.99125354804255
501.0	14.036704397346512
502.0	14.075718296010564
503.0	14.121053081264108
504.0	14.160211889332459
505.0	14.202982512959352
506.0	14.248720809258884
507.0	14.288436641475528
508.0	14.334253893844107
509.0	14.374309989163521
510.0	14.420783063503222
511.0	14.460894881220156
512.0	14.507833878704332
513.0	14.547715415270432
514.0	14.595312827088492
515.0	14.635348980941671
516.0	14.679742473725128
517.0	14.726607899502596
518.0	14.768169593962739
519.0	14.815314788291289
520.0	14.856938820758842
521.0	14.90446068590063
522.0	14.946531688940922
523.0	14.994241221666925
524.0	15.036473278306403
525.0	15.081309093809978
526.0	15.130212777695306
527.0	15.172066605367945
528.0	15.221257600872377
529.0	15.263468069272676
530.0	15.312756551062193
531.0	15.355420442024297
532.0	15.405096497991508
533.0	15.447832135382669
534.0	15.497801293699013
535.0	15.541089742037911
536.0	15.587542446948646
537.0	15.637953269192622
538.0	15.681451464132806
539.0	15.732160126084636
540.0	15.775927527447493
541.0	15.826935533010328
542.0	15.870686148847199
543.0	15.921994160445138
544.0	15.966592344531819
545.0	16.014518496220262
546.0	16.066378359142618
547.0	16.111005782994653
548.0	16.16288287336738
549.0	16.208265788567587
550.0	16.26025933454639
551.0	16.306017153075118
552.0	16.3582240578653
553.0	16.404262255988215
554.0	16.456780321752376
555.0	16.502524473326957
556.0	16.552353780056364
557.0	16.60553301869095
558.0	16.652278387133265
559.0	16.705486293949434
560.0	16.752325431324607
561.0	16.806138303346415
562.0	16.852977459251633
563.0	16.907396907472503
564.0	16.954621658063843
565.0	17.005910031642088
566.0	17.060237378239435
567.0	17.108091292367135
568.0	17.163030782306123
569.0	17.211370327572695
570.0	17.266445446785838
571.0	17.315080832173408
572.0	17.37096417052817
573.0	17.41951478534702
574.0	17.471531959909044
575.0	17.52810183658039
576.0	17.577006720453028
577.0	17.633718900429812
578.0	17.682734078021895
579.0	17.73978083714701
580.0	17.789483522764385
581.0	17.846292201520555
582.0	17.89677943663719
583.0	17.95392805488791
584.0	18.004723214864498
585.0	18.058311719663834
586.0	18.116739818833594
587.0	18.167329011399488
588.0	18.22571820491703
589.0	18.27681111212496
590.0	18.335547048657645
591.0	18.387145988506745
592.0	18.44632725372776
593.0	18.497475446864883
594.0	18.553892298321443
595.0	18.61273883470949
596.0	18.665513677563467
597.0	18.724809975394237
598.0	18.77790511316016
599.0	18.838037281859215
600.0	18.89078447470547
601.0	18.952042021562193
602.0	19.004540001551504
603.0	19.066157249803837
604.0	19.118982100749236
605.0	19.17727178219775
606.0	19.23828485859667
607.0	19.292465078008718
608.0	19.354418879999685
609.0	19.40864357459577
610.0	19.470965035310655
611.0	19.52571512047416
612.0	19.588311406920184
613.0	19.643685102348172
614.0	19.702021487167258
615.0	19.76613505392106
616.0	19.820770757375612
617.0	19.885068402615616
618.0	19.94062016175576
619.0	20.00472131560582
620.0	20.060999615847322
621.0	20.12509798566134
622.0	20.182295892612274
623.0	20.246203218006485
624.0	20.30384289369522
625.0	20.36436073182449
626.0	20.43009181472644
627.0	20.48729907041252
628.0	20.55313125954035
629.0	20.610882475511062
630.0	20.676914326514634
631.0	20.734923418673134
632.0	20.801636347239764
633.0	20.859905747988705
634.0	20.92315439399772
635.0	20.98979203107683
636.0	21.049175361975358
637.0	21.11630819115635
638.0	21.176053017625236
639.0	21.24387573564036
640.0	21.30350575608827
641.0	21.37221221564141
642.0	21.431825706737072
643.0	21.501225770280143
644.0	21.560824937327197
645.0	21.626569450323586
646.0	21.695243313261017
647.0	21.75664389490703
648.0	21.826209962647226
649.0	21.88769759002662
650.0	21.958062141213304
651.0	22.019447361671155
652.0	22.090325121758724
653.0	22.15237661716401
654.0	22.218944416823433
655.0	22.290453523233737
656.0	22.353269845129944
657.0	22.42482044378812
658.0	22.48773336303657
659.0	22.559997634357387
660.0	22.623489256436187
661.0	22.695607577302326
662.0	22.76006279583362
663.0	22.828270199956023
664.0	22.90180449772197
665.0	22.9657943372722
666.0	23.03986025544964
667.0	23.104341247626508
668.0	23.17836585338864
669.0	23.243818871579606
670.0	23.318285167563772
671.0	23.383945913422394
672.0	23.45876048627906
673.0	23.525303011136202
674.0	23.595912468551433
675.0	23.671494244785208
676.0	23.738165729721004
677.0	23.81419801422271
678.0	23.881277311262238
679.0	23.957475320425146
680.0	24.025444242981393
681.0	24.10219443177084
682.0	24.170001974537627
683.0	24.24312986995392
684.0	24.32037788235175
685.0	24.389192995636222
686.0	24.466903451409053
687.0	24.536329581251266
688.0	24.61479378488366
689.0	24.68425947777814
690.0	24.763576024064605
691.0	24.832987611665885
692.0	24.912775192709887
693.0	24.982709515656097
694.0	25.057998958576718
695.0	25.138306973678482
696.0	25.209174693103705
697.0	25.290057529811747
698.0	25.361166960645278
699.0	25.44233958354016
700.0	25.51407648064196
701.0	25.595637290758532
702.0	25.668004576758904
703.0	25.74535951931648
704.0	25.827844319112046
705.0	25.900780173516978
706.0	25.98366122657353
707.0	26.056947204071548
708.0	26.140322834735343
709.0	26.213865118535978
710.0	26.29792987683686
711.0	26.37211489139554
712.0	26.456680644516382
713.0	26.531127832784478
714.0	26.610891447098766
715.0	26.69592547040338
716.0	26.771344668573875
717.0	26.857174914863208
718.0	26.933055737803443
719.0	27.019301993737827
720.0	27.095742296814933
721.0	27.182215793165597
722.0	27.2589305827496
723.0	27.341079363099198
724.0	27.428522135396634
725.0	27.506037197339538
726.0	27.593906436657562
727.0	27.671990554908916
728.0	27.760385195910203
729.0	27.838561868547913
730.0	27.927579857849196
731.0	28.00661852570738
732.0	28.09616870536047
733.0	28.175689842446445
734.0	28.260697442214223
735.0	28.351148297348118
736.0	28.43120678818923
737.0	28.521813751265654
738.0	28.602456797691048
739.0	28.693893911669875
740.0	28.775125184820354
741.0	28.867013312135896
742.0	28.948835639666868
743.0	29.035789335028312
744.0	29.128502539108013
745.0	29.210593563413568
746.0	29.304244263270448
747.0	29.387029776113195
748.0	29.481143261722536
749.0	29.564722516654
750.0	29.659110877517378
751.0	29.743007426681288
752.0	29.832162871687615
753.0	29.927782117707466
754.0	30.01225555734527
755.0	30.108444968071126
756.0	30.19333948673011
757.0	30.28991035856052
758.0	30.375515711362823
759.0	30.4726635070474
760.0	30.558695754816654
761.0	30.656519742284218
762.0	30.7430779760125
763.0	30.835822820765316
764.0	30.934332250166335
765.0	31.021877267174204
766.0	31.12097618989901
767.0	31.208863159963585
768.0	31.3085544097612
769.0	31.397169845629833
770.0	31.49764929338562
771.0	31.5867096588172
772.0	31.682092517716228
773.0	31.78280256025937
774.0	31.873158310392682
775.0	31.97476151925366
776.0	32.06537852870861
777.0	32.16759062697747
778.0	32.25856741775897
779.0	32.36196665012176
780.0	32.453211778993136
781.0	32.557035699714106
782.0	32.64893494000171
783.0	32.7476151411247
784.0	32.85198748464063
785.0	32.94511409570623
786.0	33.05039983577626
787.0	33.14380602638994
788.0	33.24972129410344
789.0	33.34379363405424
790.0	33.45053408617787
791.0	33.54489330467186
792.0	33.64598592218317
793.0	33.753299219652035
794.0	33.84900419398218
795.0	33.95696056031011
