# EMSIM OUTPUT FILE 
# PARAMETERS OF SIMULATION RUN 
# ---------------------------- 
# Mode               : 1 
# Magnetic field?      true
# Failing field?       false
# Point charge?        false
# Electric field?      true
# Magnetic strength  : 1.0E-7T 
# Electric strength  : 1.0E-7NC^-1 
# Phase              : 1.5707963267948966
# Algorithm          : Velocity Verlet
# Time-step          : 0.001s 
# Number of Turns    : 100.0
# Number of particles: 10
# Spread in x        : 0.010439684858214946m 
# Spread in y        : 0.010439684858214946m 
# Spread in z        : 0.010439684858214946m 
# Intial average v   : 1000.0ms^-1 
# Intial v_sigma     : 0.1ms^-1 
# ----------------------------- 
Time 	 KE 	 PE 	 E 	 L 
0.0	8.363025015091074E-21	8.362862493254105E-21	1.672588750834518E-20	1.746112978881618E-21
0.6560000000000005	8.885518701502983E-21	8.885337179672914E-21	1.7770855881175898E-20	1.8552024003337585E-21
1.3119999999999663	9.440366703231513E-21	9.44008009892121E-21	1.8880446802152723E-20	1.971029225419327E-21
1.967999999999894	1.0029213762619504E-20	1.0028903510849714E-20	2.0058117273469217E-20	2.093971842572776E-21
2.623999999999822	1.0654688994089431E-20	1.0654353920449527E-20	2.130904291453896E-20	2.2245619459860462E-21
3.27999999999975	1.1319067671359013E-20	1.131870655188214E-20	2.2637774223241153E-20	2.3632745881236926E-21
3.9359999999996775	1.2024766308955759E-20	1.2024377868191009E-20	2.404914417714677E-20	2.5106143112386186E-21
4.591999999999868	1.277435142704261E-20	1.2773934336055759E-20	2.5548285763098368E-20	2.6671169773975126E-21
5.248000000000087	1.3570214785765636E-20	1.356980840910352E-20	2.7140023194869155E-20	2.833290467586364E-21
5.904000000000306	1.441546917770648E-20	1.4415032516692184E-20	2.883050169439866E-20	3.009767933942197E-21
6.560000000000525	1.5313264491424723E-20	1.531279607910201E-20	3.0626060570526734E-20	3.1972153073171367E-21
7.2160000000007445	1.6266863356113848E-20	1.6266361664298855E-20	3.25332250204127E-20	3.396313791339023E-21
7.872000000000964	1.727949749856794E-20	1.7278845932111302E-20	3.4558343430679243E-20	3.607714124936274E-21
8.528000000000713	1.835505884180514E-20	1.8354248689537905E-20	3.6709307531343044E-20	3.8322514426000545E-21
9.18400000000035	1.949720266168523E-20	1.9496347066848528E-20	3.8993549728533757E-20	4.070714385324086E-21
9.839999999999986	2.0710306880618225E-20	2.070940382331746E-20	4.1419710703935684E-20	4.3239929903773666E-21
10.495999999999622	2.1998253647686782E-20	2.199730099295923E-20	4.399555464064601E-20	4.592897801994309E-21
11.151999999999259	2.336619637886318E-20	2.3365191943658543E-20	4.6731388322521726E-20	4.8785048109084064E-21
11.807999999998895	2.481910066623212E-20	2.4818042180535387E-20	4.963714284676751E-20	5.18185078329195E-21
12.463999999998531	2.636224023797678E-20	2.6361125341536186E-20	5.2723365579512966E-20	5.504036821509279E-21
13.119999999998168	2.800121607668697E-20	2.800004231562327E-20	5.600125839231024E-20	5.846232355874247E-21
13.775999999997804	2.9741665637821947E-20	2.974058147322298E-20	5.948224711104492E-20	6.209645961648726E-21
14.43199999999744	3.1590188839275645E-20	3.15892008611399E-20	6.317938970041554E-20	6.595626038301501E-21
15.087999999997077	3.355349329072377E-20	3.355260840779458E-20	6.710610169851835E-20	7.005573159007818E-21
15.743999999996714	3.5638367221597983E-20	3.5637427332003535E-20	7.127579455360152E-20	7.440870210111502E-21
16.39999999999706	3.785268097496381E-20	3.7851683548241306E-20	7.570436452320512E-20	7.903192951968819E-21
17.055999999997862	4.020446761775249E-20	4.0203410020304324E-20	8.040787763805682E-20	8.394218616790009E-21
17.711999999998664	4.2702221921032715E-20	4.270108332063442E-20	8.540330524166714E-20	8.915717059474486E-21
18.367999999999466	4.5354697374433094E-20	4.53533060030151E-20	9.070800337744819E-20	9.469484439031761E-21
19.023000000000266	4.816662588944701E-20	4.8166272458300543E-20	9.633289834774755E-20	1.0056814105229963E-20
19.679000000001068	5.115790616772798E-20	5.115750853602496E-20	1.0231541470375294E-19	1.0681365344989278E-20
20.33500000000187	5.433485197016078E-20	5.433440776634795E-20	1.0866925973650873E-19	1.134468188080683E-20
20.99100000000267	5.770898425734542E-20	5.770849100622372E-20	1.1541747526356915E-19	1.2049169195000587E-20
21.647000000003473	6.129253879665026E-20	6.129199391525563E-20	1.2258453271190589E-19	1.2797382016176379E-20
22.303000000004275	6.509851050881385E-20	6.509791130214318E-20	1.3019642181095703E-19	1.359203357848652E-20
22.959000000005076	6.914023305703208E-20	6.913934639748773E-20	1.382795794545198E-19	1.443585975389306E-20
23.615000000005878	7.343278808939281E-20	7.343159696297805E-20	1.4686438505237086E-19	1.5332054618617333E-20
24.27100000000668	7.799173931917051E-20	7.799022594098229E-20	1.559819652601528E-19	1.6283867616935147E-20
24.92700000000748	8.283361606445326E-20	8.283176184747017E-20	1.6566537791192342E-19	1.7294749798804462E-20
25.583000000008283	8.797543782596854E-20	8.797348313607699E-20	1.7594892096204554E-19	1.8368308796441064E-20
26.239000000009085	9.343633431284177E-20	9.343427474223161E-20	1.868706090550734E-19	1.9508487665333857E-20
26.895000000009887	9.923610260945662E-20	9.923393357478315E-20	1.9847003618423977E-19	2.0719419875273872E-20
27.55100000001069	1.05395768023396E-19	1.0539348475916899E-19	2.10789252782565E-19	2.2005495339934532E-20
28.20700000001149	1.11937660282329E-19	1.1193525783406196E-19	2.2387291811639096E-19	2.3371376326251296E-20
28.863000000012292	1.1888549445793756E-19	1.1888296767504816E-19	2.3776846213298574E-19	2.4822014350775586E-20
29.519000000013094	1.2626445691013234E-19	1.2626180043858546E-19	2.5252625734871783E-19	2.63626681242316E-20
30.175000000013895	1.3410129656299855E-19	1.3409850483768296E-19	2.681998014006815E-19	2.7998922609302896E-20
30.831000000014697	1.424244218432353E-19	1.4242148908006469E-19	2.848459109233E-19	2.973670926070997E-20
31.4870000000155	1.5126331203051586E-19	1.5125989155893743E-19	3.025232035894533E-19	3.1582111991299915E-20
32.14300000001579	1.6065063735781502E-19	1.6064670211170548E-19	3.2129733946952052E-19	3.354201887119322E-20
32.79900000001426	1.7062042379815552E-19	1.706159455132737E-19	3.4123636931142923E-19	3.5623534058937435E-20
33.45500000001273	1.8120843538816352E-19	1.8120357100076607E-19	3.624120063889296E-19	3.7834163528661935E-20
34.1110000000112	1.9245299337992785E-19	1.924479155837374E-19	3.8490090896366525E-19	4.0181911806329866E-20
34.76700000000967	2.0439521429799908E-19	2.043899145950066E-19	4.087851288930057E-19	4.2675325931425177E-20
35.423000000008145	2.1707838130410127E-19	2.1707285087626864E-19	4.341512321803699E-19	4.53234430884891E-20
36.079000000006616	2.305484627657445E-19	2.305426924633828E-19	4.610911552291273E-19	4.8135861113680103E-20
36.73500000000509	2.448542788385479E-19	2.4484825916828403E-19	4.897025380068319E-19	5.112277327602693E-20
37.39000000000356	2.60023373527047E-19	2.6001945703079895E-19	5.200428305578459E-19	5.429042376815252E-20
38.04600000000203	2.761579279438489E-19	2.7615381418650944E-19	5.523117421303584E-19	5.765917585006255E-20
38.7020000000005	2.9329352062399246E-19	2.932892012088177E-19	5.865827218328102E-19	6.123693665879146E-20
39.357999999998974	3.1149225552922505E-19	3.114877217305545E-19	6.229799772597796E-19	6.503667304144526E-20
40.013999999997445	3.308200894135006E-19	3.3081533216449747E-19	6.616354215779981E-19	6.907215628129949E-20
40.669999999995916	3.5134707083833084E-19	3.513420807182808E-19	7.026891515566116E-19	7.335801200260582E-20
41.32599999999439	3.7314759401580465E-19	3.7314236123695663E-19	7.462899552527613E-19	7.790977317131897E-20
41.98199999999286	3.9629954890334846E-19	3.9629351188323395E-19	7.925930607865824E-19	8.274358750836288E-20
42.63799999999133	4.208878623525335E-19	4.2088097683436607E-19	8.417688391868995E-19	8.787729521940738E-20
43.2939999999898	4.470010578780809E-19	4.469935704874569E-19	8.939946283655377E-19	9.332944019078523E-20
43.94999999998827	4.747336823082107E-19	4.747258644386888E-19	9.494595467468996E-19	9.911976837571007E-20
44.60599999998674	5.041868042753772E-19	5.041786427238039E-19	1.008365446999181E-18	1.0526932284561957E-19
45.261999999985214	5.354671589662468E-19	5.35458640031227E-19	1.0709257989974739E-18	1.1180038913072578E-19
45.917999999983685	5.686881030689824E-19	5.686792125327607E-19	1.137367315601743E-18	1.1873663528523565E-19
46.573999999982156	6.039700255473314E-19	6.039607486570318E-19	1.2079307742043633E-18	1.26103197654258E-19
47.22999999998063	6.414407838975904E-19	6.414311053457922E-19	1.2828718892433826E-18	1.3392677196136931E-19
47.8859999999791	6.812361674693087E-19	6.812260713739334E-19	1.3624622388432421E-18	1.4223571004691257E-19
48.54199999997757	7.235003895286588E-19	7.234898594121465E-19	1.4469902489408054E-18	1.5106012260757934E-19
49.19799999997604	7.683866098475532E-19	7.683756286153042E-19	1.5367622384628574E-18	1.6043198830957007E-19
49.85399999997451	8.160574897122205E-19	8.160460396302736E-19	1.6321035293424941E-18	1.7038526967072724E-19
50.50999999997298	8.666857813624005E-19	8.6667384403432445E-19	1.7333596253967248E-18	1.8095603613156002E-19
51.165999999971454	9.204549539971292E-19	9.204425103400977E-19	1.8408974643372267E-18	1.9218259476113587E-19
51.821999999969925	9.77559858615522E-19	9.775468888355497E-19	1.9551067474510717E-18	2.0410562907147078E-19
52.4779999999684	1.038207434101775E-18	1.0381939176680753E-18	2.0764013517698504E-18	2.1676834644344367E-19
53.13399999996687	1.1026174571129808E-18	1.102603372731423E-18	2.205220829844404E-18	2.3021663469845777E-19
53.78999999996534	1.1710233384871325E-18	1.1710086640727658E-18	2.3420320025598984E-18	2.4449922838321777E-19
54.44599999996381	1.2436709857560477E-18	1.243654721616693E-18	2.4873257073727408E-18	2.5966726732222463E-19
55.10199999996228	1.3208234543662244E-18	1.3208065237161968E-18	2.641629978082421E-18	2.757760773254684E-19
55.75799999996075	1.4027621594334855E-18	1.402744536729871E-18	2.8055066961633567E-18	2.928842180008899E-19
56.412999999959226	1.4896473391196709E-18	1.4896341177152775E-18	2.9792814568349485E-18	3.110262148598897E-19
57.0689999999577	1.582059215643264E-18	1.5820454046238377E-18	3.1641046202671017E-18	3.3032110911323873E-19
57.72499999995617	1.6802039624230188E-18	1.6801895381037694E-18	3.3603935005267884E-18	3.508129855975001E-19
58.38099999995464	1.7844396000169797E-18	1.7844257079482037E-18	3.5688653079651834E-18	3.725768408775653E-19
59.03699999995311	1.8951416801978424E-18	1.8951283663647336E-18	3.790270046562576E-18	3.956908582142691E-19
59.69299999995158	2.0127138433888414E-18	2.0126999133516334E-18	4.025413756740475E-18	4.202390561909901E-19
60.34899999995005	2.1375798753260916E-18	2.1375653038621277E-18	4.275145179188219E-18	4.4631016272354E-19
61.004999999948524	2.270192263682793E-18	2.2701770246034747E-18	4.540369288286268E-18	4.739986541844454E-19
61.660999999946995	2.411031566834732E-18	2.4110156329500512E-18	4.822047199784783E-18	5.0340486792460185E-19
62.316999999945466	2.5606081552609013E-18	2.5605914983426976E-18	5.121199653603599E-18	5.34635365866482E-19
62.97299999994394	2.7194640609739058E-18	2.7194466517178138E-18	5.4389107126917196E-18	5.678033206532743E-19
63.62899999994241	2.8881749416819003E-18	2.8881567496679405E-18	5.7763316913498404E-18	6.030289257532321E-19
64.2849999999429	3.0673521667995862E-18	3.067333160451352E-18	6.134685327250938E-18	6.404398310053299E-19
64.94099999994603	3.257645032867279E-18	3.2576251794096835E-18	6.5152702122769625E-18	6.801716051844988E-19
65.59699999994916	3.4597431164060385E-18	3.4597223818215366E-18	6.919465498227575E-18	7.223682272626314E-19
65.59699999994916	3.4597431164060385E-18	3.4597223818215366E-18	6.919465498227575E-18	7.223682272626314E-19

#Absolute change in energy: 6.90273961071923E-18J
#Percentage change: 41269.79574193113%
#Absolute change in angular momentum: 7.206221142837498E-19kgm^2s^-1
#Percentage change: 41270.07375807417%