# EMSIM OUTPUT FILE 
# PARAMETERS OF SIMULATION RUN 
# ---------------------------- 
# Mode               : 1 
# Magnetic field?      true
# Failing field?       false
# Point charge?        false
# Electric field?      false
# Magnetic strength  : 1.0E-7T 
# Electric strength  : 1.0E-7NC^-1 
# Phase              : 1.5707963267948966
# Algorithm          : 4
# Time-step          : 1.0E-5s 
# Number of Turns    : 10.0
# Number of particles: 1
# Spread in x        : 0.0m 
# Spread in y        : 0.0m 
# Spread in z        : 0.0m 
# Intial average v   : 0.1ms^-1 
# Intial v_sigma     : 0.0ms^-1 
# ----------------------------- 
x 	 y 	 z 
2.129368949127106E-5	6.66213228470403E-4	0.0
8.50587111596828E-5	0.001329709741084283	0.0
1.9103513309750826E-4	0.001987784745525649	0.0
3.3879094549810944E-4	0.002637755549960095	0.0
5.277238217313723E-4	0.003276972499228268	0.0
7.570635737284434E-4	0.0039028297763655123	0.0
0.0010258752916664758	0.004512776025414535	0.0
0.0013330631551542339	0.005104324752227328	0.0
0.0016773749003824118	0.005675064460854844	0.0
0.0020574069250278706	0.006222668484204304	0.0
0.0024716100101016634	0.0067449044688877415	0.0
0.002918295635415542	0.007239643475596584	0.0
0.0033956428629212543	0.0077048686579033	0.0
0.00390170575986276	0.008138683484110442	0.0
0.004434421331480131	0.008539319468630856	0.0
0.004991617930927904	0.00890514338137937	0.0
0.005571024112122594	0.009234663905788292	0.0
0.006170277889432078	0.009526537718303694	0.0
0.006786936366458076	0.009779574964578805	0.0
0.007418485694659915	0.009992744110040815	0.0
0.008062351321221926	0.010165176145056536	0.0
0.008715908484389325	0.010296168127554739	0.0
0.009376492913487248	0.010385186048662579	0.0
0.010041411690002637	0.010431867009674696	0.0
0.010707954225454753	0.010436020701479535	0.0
0.011373403311300993	0.010397630180412376	0.0
0.012035046195832727	0.01031685193737154	0.0
0.012690185642905577	0.010194015259916131	0.0
0.013336150927421717	0.010029620889945363	0.0
0.01397030872274132	0.00982433898243176	0.0
0.014590073835638866	0.009579006373528926	0.0
0.015192919745043167	0.009294623169190823	0.0
0.015776388901598055	0.008972348668209007	0.0
0.016338102746058396	0.008613496636287566	0.0
0.01687577140568014	0.008219529950421477	0.0
0.017387203029073834	0.007792054635410425	0.0
0.01787031272147129	0.007332813316819166	0.0
0.018323131043977498	0.006843678117071983	0.0
0.018743812042160087	0.006326643023643783	0.0
0.019130640771248507	0.005783815760456473	0.0
0.01948204028726326	0.005217409195618597	0.0
0.019796578075578223	0.004629732320534898	0.0
0.020072971890706726	0.004023180837160011	0.0
0.020310094983506555	0.0034002273917679384	0.0
0.02050698069449447	0.0027634114950497142	0.0
0.020662826394543966	0.0021153291696312726	0.0
0.020776996756903147	0.0014586223672134054	0.0
0.020849026347193052	7.959681984758229E-4	0.0
0.02087862152082758	1.3006801965045333E-4	0.0
0.020865661620121177	-5.363635797469141E-4	0.0
0.020810199466202092	-0.0012006098431341242	0.0
0.020712461143728024	-0.0018599629219172578	0.0
0.020572845079279718	-0.0025117349142338655	0.0
0.0203919204171895	-0.0031532688223849825	0.0
0.020170424699427432	-0.0037819493842865593	0.0
0.0199092608590004	-0.004395213734785434	0.0
0.019609493539122575	-0.004990561853378603	0.0
0.019272344753161474	-0.005565566755743791	0.0
0.018899188903051967	-0.006117884387535419	0.0
0.018491547176486014	-0.006645263180113413	0.0
0.0180510813457182	-0.007145553229249542	0.0
0.017579586993266436	-0.007616715059393407	0.0
0.01707898619212385	-0.008056827937770749	0.0
0.01655131967032113	-0.008464097704420241	0.0
0.015998738491781052	-0.008836864086248616	0.0
0.015423495287379036	-0.009173607465288615	0.0
0.014827935071955428	-0.009472955073567216	0.0
0.014214485684715722	-0.009733686589331589	0.0
0.013585647891990061	-0.009954739111817826	0.0
0.012943985192696239	-0.010135211494283168	0.0
0.012292113368066649	-0.010274368017637169	0.0
0.01163268981823966	-0.010371641389696104	0.0
0.010968402729186175	-0.010426635057833563	0.0
0.01030196011413239	-0.010439124825599586	0.0
0.009636078774152637	-0.010409059766717594	0.0
0.00897347322293518	-0.010336562432733103	0.0
0.008316844620869734	-0.010221928353467885	0.0
0.0076688697635682365	-0.010065624832315209	0.0
0.007032190169707152	-0.009868289041287438	0.0
0.006409401312675694	-0.009630725423581513	0.0
0.005803042039929367	-0.0093539024142506	0.0
0.005215584223179602	-0.009038948492350008	0.0
0.004649422681612524	-0.008687147580651672	0.0
0.004106865419215274	-0.008299933811679172	0.0
0.00359012421600849	-0.007878885681401014	0.0
0.003101305611539978	-0.007425719614414515	0.0
0.0026424023173968183	-0.006942282966850859	0.0
0.0022152850937432835	-0.006430546495527817	0.0
0.0018216951230002492	-0.005892596324048403	0.0
0.0014632369117558608	-0.005330625438595857	0.0
0.0011413717498432066	-0.004746924748093913	0.0
8.574117532500291E-4	-0.00414387374517541	0.0
6.12514515144714E-4	-0.003523930806030858	0.0
4.0767838682443833E-4	-0.0028896231686795166	0.0
2.4373840782319274E-4	-0.002243536630518172	0.0
1.2136290177096595E-4	-0.0015883050071455942	0.0
4.105075188152679E-5	-9.265993954345171E-4	0.0
3.129367175667285E-6	-2.6111728462115694E-4	0.0
-1.308945336190604E-7	1.9215809652354818E-7	0.0
7.753347730895016E-6	4.0542844019844914E-4	0.0
5.49038543989648E-5	0.001070320557337233	0.0
1.443886855608272E-4	0.001730848585467142	0.0
2.758430606062762E-4	0.0023843198330944435	0.0
4.4873110694455733E-4	0.0030280703755163345	0.0
6.623480444842204E-4	0.0036594759145103725	0.0
9.158230586771949E-4	0.0042759624764864045	0.0
0.0012081228504150676	0.004875016905489444	0.0
0.001538055848306455	0.00545419710827757	0.0
0.0019042770661637288	0.006011142009710009	0.0
0.0023052935858975444	0.006543581177861833	0.0
0.0027394706434681285	0.007049344079627234	0.0
0.003205038293083027	0.0075263689290806825	0.0
0.0037000986224750777	0.007972711092524207	0.0
0.004222633489846531	0.008386551015957595	0.0
0.004770512750940021	0.00876620164265433	0.0
0.005341502942697267	0.009110115290603895	0.0
0.005933276388106808	0.009416889961785349	0.0
0.00654342068512405	0.009685275057551007	0.0
0.007169448540981449	0.009914176476821124	0.0
0.007808807911798672	0.010102661076306039	0.0
0.008458892406157614	0.010249960474573615	0.0
0.009117051910233097	0.010355474184453666	0.0
0.009780603391161744	0.010418772061010217	0.0
0.010446841834611878	0.010439596055102075	0.0
0.011113051271964903	0.010417861265382503	0.0
0.01177651585215562	0.010353656284450176	0.0
0.01243453091303558	0.01024724283773885	0.0
0.013084414007127596	0.01009905471661909	0.0
0.013723515836822766	0.009909696010060035	0.0
0.014349231054442597	0.009679938642060406	0.0
0.014959008883139184	0.00941071922488702	0.0
0.015550363515335355	0.00910313524094911	0.0
0.016120884246315845	0.008758440568872695	0.0
0.016668245301660018	0.008378040372013233	0.0
0.01719021531845072	0.007963485370244192	0.0
0.01768466644161086	0.00751646551837209	0.0
0.01814958299828541	0.00703880311694841	0.0
0.01858306971490667	0.006532445383563246	0.0
0.0189833594434449	0.005999456514903655	0.0
0.01934882036534772	0.005442009271936036	0.0
0.01967796264380187	0.004862376122516028	0.0
0.019969444497196467	0.004262919977534239	0.0
0.020222077669030943	0.003646084558361737	0.0
0.02043483227196817	0.0030143844348632315	0.0
0.020606840986285044	0.0023703947745888116	0.0
0.020737402595605473	0.001716740844932413	0.0
0.020825984845502358	0.0010560873110516855	0.0
0.020872226613314088	3.9112737317734364E-4	0.0
0.02087593938033131	-2.7542821240547134E-4	0.0
0.020837108000350657	-9.408621839471769E-4	0.0
0.020755890761463825	-0.0016024618513465667	0.0
0.02063261874082871	-0.0022575301546297836	0.0
0.020467794455053454	-0.0029033966587147806	0.0
0.020262089811695007	-0.0035374284396403233	0.0
0.020016343370221998	-0.004157040817880715	0.0
0.019731556923609145	-0.004759707894991705	0.0
0.019408891414497163	-0.005342972850633627	0.0
0.019049662202566126	-0.005904457957994988	0.0
0.01865533370241624	-0.006441874276788344	0.0
0.01822751341381322	-0.006953030984303971	0.0
0.017767945368635712	-0.007435844306482438	0.0
0.017278503021237516	-0.007888346012597799	0.0
0.01676118161120814	-0.008308691438922187	0.0
0.01621809002966519	-0.00869516700866326	0.0
0.01565144222223599	-0.009046197217516974	0.0
0.015063548163774271	-0.009360351056360228	0.0
0.014456804441604134	-0.009636347844900571	0.0
0.013833684485681364	-0.009873062452500246	0.0
0.013196728485495666	-0.010069529884892407	0.0
0.012548533034821854	-0.010224949218091164	0.0
0.011891740546530718	-0.010338686863458022	0.0
0.011229028480613796	-0.010410279150614505	0.0
0.01056309842933191	-0.010439434217671226	0.0
0.00989666510398539	-0.010426033201068247	0.0
0.00923244526819947	-0.010370130720174644	0.0
0.008573146662841282	-0.010271954654673064	0.0
0.007921456967715457	-0.010131905215635974	0.0
0.007280032845037852	-0.009950553314079949	0.0
0.00665148910935095	-0.00972863823364911	0.0
0.006038388068032694	-0.009467064616914742	0.0
0.0054432290758510945	-0.009166898777576319	0.0
0.0048684383461476514	-0.008829364353597671	0.0
0.004316359060183803	-0.008455837318998268	0.0
0.003789241814971836	-0.008047840374634201	0.0
0.0032892354485292664	-0.007607036740835351	0.0
0.0028183782799588207	-0.007135223377202578	0.0
0.0023785898000650042	-0.0066343236572059235	0.0
0.001971662846380327	-0.00610637952744561	0.0
0.0015992562945009075	-0.005553543183538881	0.0
0.0012628882955255621	-0.004978068296566664	0.0
9.639300871671482E-4	-0.004382300825845901	0.0
7.036004037651272E-4	-0.0037686694554799442	0.0
4.829605079877857E-4	-0.0031396756936728797	0.0
3.0290986447797084E-4	-0.002497883675168328	0.0
1.6418247307900308E-4	-0.0018459097083845942	0.0
6.73438765889696E-5	-0.0011864116098570072	0.0
1.278885524156935E-5	-5.220778694666026E-4	0.0
-2.617871701119827E-7	3.8432101146139076E-7	0.0
7.398173123565179E-7	1.4438330937578328E-4	0.0
3.1245892411353084E-5	8.102550499120262E-4	0.0
1.0418273115846762E-4	0.0014728228775795194	0.0
2.1925301205854317E-4	0.002129385785764104	0.0
3.759876535098925E-4	0.0027772672466526704	0.0
5.737477260056776E-4	0.003413826122299162	0.0
8.117270567330498E-4	0.004036467431423664	0.0
0.0010889555159524409	0.004642652928053479	0.0
0.0014043029717599573	0.00522991144888154	0.0
0.0017564838971112638	0.0057958489871595	0.0
0.00214406261032605	0.0063381584520595296	0.0
0.00256545912771028	0.006854629073719538	0.0
0.0030189556044374734	0.007343155415631162	0.0
0.003502703337432424	0.007801745957631172	0.0
0.0040147303017099185	0.008228531214506615	0.0
0.004552949189446137	0.008621771357118583	0.0
0.0051151659190110735	0.008979863304974203	0.0
0.00569908857927386	0.009301347261335378	0.0
0.006302336772719648	0.009584912664222615	0.0
0.006922451319290307	0.00982940352905398	0.0
0.007556904281389884	0.010033823161139373	0.0
0.008203109269187835	0.010197338218819327	0.0
0.008858431984210024	0.010319282110684218	0.0
0.009520200958235213	0.010399157713025148	0.0
0.010185718443719004	0.010436639396437727	0.0
0.010852271411350867	0.010431574353317813	0.0
0.01151714260991072	0.010383983220836918	0.0
0.012177621643339413	0.010294059996857181	0.0
0.012831016019866479	0.010162171249129524	0.0
0.013474662128152537	0.009988854620997408	0.0
0.014105936095701564	0.009774816639698543	0.0
0.014722264485277007	0.009520929836198254	0.0
0.015321134785718416	0.009228229188296262	0.0
0.0159001056543903	0.008897907901506021	0.0
0.016456816869511115	0.008531312544906126	0.0
0.016988998951789208	0.008129937561793196	0.0
0.017494482416142078	0.007695419177513126	0.0
0.017971206615785235	0.007229528729305854	0.0
0.018417228142636164	0.0067341654453549485	0.0
0.018830728749788028	0.0062113487024794	0.0
0.019210022763756773	0.005663209794027875	0.0
0.01955356395628505	0.005091983241535604	0.0
0.01985995184768937	0.004499997685561641	0.0
0.02012793741605426	0.0038896663928408744	0.0
0.02035642818899907	0.0032634774184489243	0.0
0.020544492697260944	0.002623983463083969	0.0
0.02069136427193751	0.0019737914668141975	0.0
0.020796444169910437	0.001315551981711462	0.0
0.02085930401470808	6.519483666945437E-4	0.0
0.02087968754285613	-1.4314151369414821E-5	0.0
0.020857511648598937	-6.805195057128053E-4	0.0
0.020792866722729404	-0.0013439518619078245	0.0
0.02068601628414907	-0.0020019066891624237	0.0
0.020537395905658146	-0.0026517017855389154	0.0
0.020347611438355704	-0.003290688212150459	0.0
0.020117436541886427	-0.003916261091760709	0.0
0.019847809530604527	-0.004525870227765801	0.0
0.01953982954850846	-0.005117030500270078	0.0
0.019194752088542547	-0.0056873319968735086	0.0
0.01881398387452813	-0.0062344498368736845	0.0
0.018399077126590953	-0.006756153648832116	0.0
0.01795172323346026	-0.007250316662869204	0.0
0.01747374585743565	-0.0077149243806221264	0.0
0.016967093500128903	-0.00814808278752182	0.0
0.016433831559288122	-0.008548026073912073	0.0
0.015876133909083573	-0.008913123833532667	0.0
0.01529627403818028	-0.009241887710023206	0.0
0.014696615781721437	-0.009532977464352086	0.0
0.01407960368500617	-0.009785206438435591	0.0
0.013447753038144397	-0.00999754639267488	0.0
0.012803639622312355	-0.01016913169768965	0.0
0.012149889209409348	-0.010299262863160276	0.0
0.011489166857920872	-0.010387409389393372	0.0
0.010824166048624548	-0.010433211929985264	0.0
0.010157597704428145	-0.010436483756767145	0.0
0.009492179139099666	-0.010397211521060011	0.0
0.008830622979943071	-0.010315555308135955	0.0
0.008175626109574771	-0.010191847984662784	0.0
0.0075298586718825986	-0.010026593841793299	0.0
0.0068959531869836515	-0.009820466539429267	0.0
0.0062764938195554116	-0.009574306360041373	0.0
0.005674005844289206	-0.009289116783239171	0.0
0.005090945351409824	-0.00896606039505538	0.0
0.00452968923422793	-0.008606454148620258	0.0
0.003992525499542161	-0.008211763995545912	0.0
0.0034816439403909114	-0.0077835989099064255	0.0
0.0029991272091770453	-0.00732370432917503	0.0
0.0025469423275573215	-0.006833955038855765	0.0
0.0021269326677065725	-0.006316347529818321	0.0
0.0017408104376458802	-0.005772991859488899	0.0
0.0013901497012689997	-0.005206103050077286	0.0
0.0010763799615216214	-0.004617992058904974	0.0
8.007803328922448E-4	-0.004011056357644505	0.0
5.644743269707863E-4	-0.0033877701588747007	0.0
3.6842527233259205E-4	-0.0027506743297929814	0.0
2.1343238741881716E-4	-0.0021023660342032605	0.0
1.0012752242270339E-4	-0.0014454881450039364	0.0
2.8972583463809476E-5	-7.827184703363307E-4	0.0
2.5764955092403406E-7	-1.1675883731483477E-4	0.0
-3.926779114281647E-7	5.764887446791723E-7	0.0
1.4099790010166922E-5	5.496759221611292E-4	0.0
7.044258719930037E-5	0.0012138690386127749	0.0
1.6905636645412036E-4	0.0018731128800891542	0.0
3.095391323297103E-4	0.0025247199900273326	0.0
4.913182073201008E-4	0.0031660340428691326	0.0
7.13652566376102E-4	0.003794440672772563	0.0
9.756358577047662E-4	0.004407378131274381	0.0
0.0012762000975359395	0.00500234773045697	0.0
0.001614120023794447	0.00557692402904668	0.0
0.0019880180909295432	0.0061287647199195746	0.0
0.002396370085540364	0.0066556201787074986	0.0
0.0028375113399051284	0.007155342634578387	0.0
0.0033096435180837596	0.007625894925805833	0.0
0.0038108419469307176	0.00806535880443434	0.0
0.004339063462132238	0.008471942756187033	0.0
0.004892154737283907	0.008843989303735523	0.0
0.0054678610620534085	0.009179981763560392	0.0
0.006063835533644803	0.009478550428857334	0.0
0.0066776486240945595	0.009738478153283877	0.0
0.007306798084397029	0.009958705312783405	0.0
0.007948719145085615	0.010138334125259727	0.0
0.00860079497168532	0.010276632310491968	0.0
0.009260367332415172	0.010373036075370162	0.0
0.009924747434651835	0.01042715241228185	0.0
0.010591226885979946	0.01043876070127927	0.0
0.011257088735145096	0.010407813609496927	0.0
0.011919618547900407	0.010334437284151263	0.0
0.012576115472595082	0.01021893083833679	0.0
0.013223903250395377	0.010061765131713973	0.0
0.013860341125253986	0.009863580851059348	0.0
0.014482834609152563	0.009625185898502787	0.0
0.015088846058732019	0.009347552098098582	0.0
0.0156759050201937	0.009031811234155938	0.0
0.016241618300300558	0.008679250437479004	0.0
0.0167836797224236	0.00829130693832452	0.0
0.017299879527859198	0.007869562207466662	0.0
0.017788113384094948	0.007415735509253934	0.0
0.018246390963301273	0.006931676892937708	0.0
0.018672844056075742	0.006419359650846394	0.0
0.01906573418736541	0.005880872274147606	0.0
0.019423459703519375	0.005318409938991691	0.0
0.019744562301580577	0.004734265557744356	0.0
0.020027732974200584	0.004130820431788169	0.0
0.02027181734594058	0.003510534543997315	0.0
0.020475820379205922	0.0028759365304591427	0.0
0.02063891043062998	0.00222961337232341	0.0
0.02076042264136978	0.0015741998498010842	0.0
0.020839861647493962	9.123678013039004E-4	0.0
0.020876903599413174	2.468152315109382E-4	0.0
0.020871397482119837	-4.1974468723636195E-4	0.0
0.02082336573085574	-0.001084594675374015	0.0
0.0207330041396977	-0.0017450244233015559	0.0
0.020600681063432717	-0.0023983416401572857	0.0
0.020426935915977024	-0.0030418830291418127	0.0
0.02021247697145987	-0.003673025144647819	0.0
0.01995817847693566	-0.004289195086936176	0.0
0.019665077088494767	-0.004887880990761513	0.0
0.019334367645301172	-0.005466642265188261	0.0
0.018967398298784487	-0.006023119542854641	0.0
0.018565665016841915	-0.006555044298125454	0.0
0.018130805485454475	-0.007060248094924379	0.0
0.017664592432577217	-0.0075366714265464475	0.0
0.017168926401519968	-0.007982372111413862	0.0
0.01664582800327721	-0.008395533210550234	0.0
0.01609742967939152	-0.008774470434495831	0.0
0.015525967008929834	-0.009117639009469436	0.0
0.014933769595009427	-0.009423639974785993	0.0
0.01432325156802515	-0.00969122588585859	0.0
0.013696901744294812	-0.009919305899535257	0.0
0.013057273480237172	-0.010106950221040219	0.0
0.012406974263446283	-0.010253393894390464	0.0
0.011748655083093088	-0.010358039920836552	0.0
0.01108499962298691	-0.010420461692613918	0.0
0.010418713321352269	-0.010440404732083805	0.0
0.009752512341919295	-0.010417787729173756	0.0
0.009089112501288396	-0.010352702872887943	0.0
0.008431218197706687	-0.010245415475536488	0.0
0.007781511386389881	-0.010096362891214615	0.0
0.007142640646331737	-0.00990615273294073	0.0
0.006517210383170687	-0.009675560395721467	0.0
0.005907770212131064	-0.009405525895640438	0.0
0.005316804564317425	-0.009097150037856494	0.0
0.004746722558734639	-0.00875168992913263	0.0
0.004199848181320447	-0.008370553853189099	0.0
0.003678410811026601	-0.007955295529771249	0.0
0.0031845361315698583	-0.007507607780835647	0.0
0.002720237465901705	-0.007029315629673524	0.0
0.002287407568723015	-0.0065223688611051964	0.0
0.0018878109105014544	-0.0059888340730727034	0.0
0.001523076484447123	-0.005430886252033288	0.0
0.0011946911657689657	-0.004850799906497014	0.0
9.039936502841898E-4	-0.004250939794853319	0.0
6.521689970898821E-4	-0.003633751285285186	0.0
4.4024379754451496E-4	-0.0030017503870689126	0.0
2.690819902535438E-4	-0.0023575134938978396	0.0
1.393813391195747E-4	-0.001703666881042408	0.0
5.1670588814896314E-5	-0.0010428759991611789	0.0
6.307309272418763E-6	-3.778346084080339E-4	0.0
-5.236091906610542E-7	1.0196119416692064E-7	0.0
3.4764379823009586E-6	2.887462028690628E-4	0.0
4.3189526036866975E-5	9.541490700718284E-4	0.0
1.2528469099755039E-4	0.0016156614298837853	0.0
2.494272767761842E-4	0.0022705865782324803	0.0
4.151112178407614E-4	0.0029162546636030823	0.0
6.216611021845791E-4	0.003550033570888536	0.0
8.682349246490622E-4	0.004169339651407025	0.0
0.0011538275193763603	0.004771648255345498	0.0
0.0014772746573992635	0.005354504023692902	0.0
0.0018372577926644017	0.005915530897706419	0.0
0.00223230943714143	0.006452441805107583	0.0
0.002660819143106498	0.006963047983520873	0.0
0.0031210400682125682	0.007445267903147108	0.0
0.0036110960965842005	0.00789713575229795	0.0
0.00412898948690677	0.008316809451199005	0.0
0.004672609016332877	0.00870257816139386	0.0
0.005239738587006531	0.009052869260133684	0.0
0.0058280662601196105	0.009366254751323196	0.0
