# EMSIM OUTPUT FILE 
# PARAMETERS OF SIMULATION RUN 
# ---------------------------- 
# Mode               : 1 
# Magnetic field?      true
# Failing field?       false
# Point charge?        false
# Electric field?      true
# Magnetic strength  : 1.0E-7T 
# Electric strength  : 1.0E-7NC^-1 
# Phase              : 1.5707963267948966
# Algorithm          : Runge-Kutta-Fehlbergy
# Time-step          : 1.0E-5s 
# Number of Turns    : 100.0
# Number of particles: 1
# Spread in x        : 0.0m 
# Spread in y        : 0.0m 
# Spread in z        : 0.0m 
# Intial average v   : 1000.0ms^-1 
# Intial v_sigma     : 0.0ms^-1 
# ----------------------------- 
Turn Num 	 deltaV 
1.0	0.19990819908946378
2.0	0.19984629658119957
3.0	0.19982454176079045
4.0	0.19977059512950746
5.0	0.19972968294894144
6.0	0.19967470568712997
7.0	0.1996313458369059
8.0	0.19958681845128012
9.0	0.1995282293511309
10.0	0.19948125807798078
11.0	0.1994408835627155
12.0	0.19937868849945062
13.0	0.1993347363737712
14.0	0.19926355049005906
15.0	0.19921195637243727
16.0	0.19917197539780318
17.0	0.1990884388953873
18.0	0.1990344419118628
19.0	0.19899086600480587
20.0	0.19890356319831426
21.0	0.19884479117695264
22.0	0.1987976274022003
23.0	0.19871449716231382
24.0	0.19865858707919415
25.0	0.19857948147375737
26.0	0.1985069654781455
27.0	0.19845521783793174
28.0	0.19837254939443483
29.0	0.19828892424391142
30.0	0.19823479338151628
31.0	0.1981485724055574
32.0	0.19806893471195508
33.0	0.1980025204421736
34.0	0.1979127567217347
35.0	0.19784490881500005
36.0	0.1977617598984125
37.0	0.1976673099728714
38.0	0.19759473065016664
39.0	0.19750805160686014
40.0	0.19741777958188322
41.0	0.19734924676254195
42.0	0.19724256821007202
43.0	0.19716409309114624
44.0	0.19707035514466043
45.0	0.19697540835966265
46.0	0.1969011754750909
47.0	0.19679615945892692
48.0	0.19669020972492035
49.0	0.1966124570383272
50.0	0.19650512688190247
51.0	0.19640317233972837
52.0	0.196321905120044
53.0	0.19620243697238493
54.0	0.19611107491425628
55.0	0.1960068910919972
56.0	0.1958979350597474
57.0	0.19581064456201602
58.0	0.195685411070599
59.0	0.19557417510293362
60.0	0.19548995714842476
61.0	0.19536235359066723
62.0	0.19525539823985127
63.0	0.19515994878383935
64.0	0.19502128429769527
65.0	0.194924896950738
66.0	0.19479793159450765
67.0	0.19467748368265347
68.0	0.19458517686814503
69.0	0.19444723603896819
70.0	0.19433743617173604
71.0	0.1942263953847032
72.0	0.19409395298578147
73.0	0.19397956687305395
74.0	0.19383713639820144
75.0	0.19371643060480892
76.0	0.19360601017024237
77.0	0.1934677116940975
78.0	0.1933412431172883
79.0	0.1932210530753764
80.0	0.19308588786645942
81.0	0.1929421310030648
82.0	0.1928262292154841
83.0	0.19267998920270202
84.0	0.19255527622522095
85.0	0.19241566093762685
86.0	0.19227245658987613
87.0	0.19215719232784068
88.0	0.19199903294293108
89.0	0.19185380919566342
90.0	0.19172747440279636
91.0	0.19156598545419
92.0	0.19144623888143997
93.0	0.19128135543553526
94.0	0.1911443461408453
95.0	0.19100608129292596
96.0	0.19084671272764808
97.0	0.19069870054522653
98.0	0.19056454252313415
99.0	0.1904006882474505
100.0	0.19025069825272567
