# EMSIM OUTPUT FILE 
# PARAMETERS OF SIMULATION RUN 
# ---------------------------- 
# Mode               : 1 
# Magnetic field?      true
# Failing field?       false
# Point charge?        false
# Electric field?      true
# Magnetic strength  : 1.0E-7T 
# Electric strength  : 1.0E-7NC^-1 
# Phase              : 1.5707963267948966
# Algorithm          : Velocity Verlet
# Time-step          : 1.0E-4s 
# Number of Turns    : 100.0
# Number of particles: 10
# Spread in x        : 0.010439684858214946m 
# Spread in y        : 0.010439684858214946m 
# Spread in z        : 0.010439684858214946m 
# Intial average v   : 1000.0ms^-1 
# Intial v_sigma     : 0.1ms^-1 
# ----------------------------- 
Turn Num 	 deltaV 
1.0	3.2143831448910305
2.0	3.222266945118804
3.0	3.232825283199986
4.0	3.240093858220689
5.0	3.2512824294931306
6.0	3.2587937600314945
7.0	3.268320570457149
8.0	3.2775068230630495
9.0	3.2878584438012695
10.0	3.2953768056381705
11.0	3.3051188261983953
12.0	3.315366982018759
13.0	3.323825049885272
14.0	3.3340368257331647
15.0	3.3421667850268477
16.0	3.3539676457653513
17.0	3.360718717671034
18.0	3.372578804741579
19.0	3.3807230465295106
20.0	3.38985886191972
21.0	3.4012370979105526
22.0	3.4089852344352494
23.0	3.4208059516975027
24.0	3.428417416363118
25.0	3.4398231433601723
26.0	3.4491155928569697
27.0	3.4590546472559254
28.0	3.4676357141479457
29.0	3.4795491960148865
30.0	3.4876144873821886
31.0	3.497551156560121
32.0	3.5086028106400136
33.0	3.5178991032805698
34.0	3.5288223648753956
35.0	3.5376038435513237
36.0	3.5501210450147482
37.0	3.557431039622543
38.0	3.569244995175268
39.0	3.578620780372148
40.0	3.588448309991918
41.0	3.600073828373297
42.0	3.6087721692899777
43.0	3.621131567995235
44.0	3.6293140803766164
45.0	3.641740094918987
46.0	3.651226175712509
47.0	3.6618065239547377
48.0	3.671157303635482
49.0	3.683908559469046
50.0	3.6925559892049478
51.0	3.702919465604964
52.0	3.715388358413975
53.0	3.724508993379686
54.0	3.735896463756262
55.0	3.746225617109303
56.0	3.758448076105651
57.0	3.7669255936523314
58.0	3.7801723465297528
59.0	3.7890958286311616
60.0	3.799556976204485
61.0	3.8122370682804103
62.0	3.822495923548331
63.0	3.834577283397948
64.0	3.8430817835217113
65.0	3.857143646305076
66.0	3.8659035729360767
67.0	3.878121391738432
68.0	3.8892410100422694
69.0	3.901245831761571
70.0	3.910705690225768
71.0	3.922302307737027
72.0	3.9349863922241184
73.0	3.944351372271285
74.0	3.9583520874061833
75.0	3.96816700752197
76.0	3.980326610449538
77.0	3.990875429054313
78.0	4.003778485327075
79.0	4.013338402618729
80.0	4.025339870116795
81.0	4.039117364997992
82.0	4.0487795996875775
83.0	4.061387682564828
84.0	4.072454154983461
85.0	4.085137012126779
86.0	4.0953127680013495
87.0	4.109793425129965
88.0	4.119655986781936
89.0	4.132967977174985
90.0	4.143760911298614
91.0	4.1550992868515095
92.0	4.16842785169888
93.0	4.180183112316399
94.0	4.193399237185986
95.0	4.203500328399514
96.0	4.218708044588766
97.0	4.228211929839517
98.0	4.2412921241345884
99.0	4.253448690977393
100.0	4.265308859929746
